Bragg_angle,Intensity
\circ,a.u.
5,566
5.05,571
5.1,641
5.15,604
5.2,629
5.25,604
5.3,625
5.35,598
5.4,567
5.45,565
5.5,526
5.55,540
5.6,554
5.65,574
5.7,550
5.75,543
5.8,513
5.85,494
5.9,503
5.95,533
6,486
6.05,533
6.1,496
6.15,501
6.2,526
6.25,494
6.3,469
6.35,511
6.4,494
6.45,517
6.5,491
6.55,468
6.6,512
6.65,494
6.7,498
6.75,504
6.8,469
6.85,465
6.9,480
6.95,525
7,481
7.05,487
7.1,526
7.15,537
7.2,544
7.25,560
7.3,520
7.35,508
7.4,538
7.45,509
7.5,515
7.55,526
7.6,529
7.65,541
7.7,500
7.75,481
7.8,512
7.85,481
7.9,495
7.95,507
8,499
8.05,503
8.1,517
8.15,501
8.2,497
8.25,464
8.3,473
8.35,471
8.4,499
8.45,504
8.5,503
8.55,494
8.6,523
8.65,491
8.7,510
8.75,515
8.8,478
8.85,535
8.9,527
8.95,534
9,535
9.05,495
9.1,554
9.15,513
9.2,526
9.25,522
9.3,536
9.35,584
9.4,530
9.45,574
9.5,585
9.55,562
9.6,558
9.65,566
9.7,533
9.75,533
9.8,552
9.85,575
9.9,520
9.95,562
10,555
10.05,514
10.1,543
10.15,512
10.2,557
10.25,540
10.3,510
10.35,526
10.4,563
10.45,513
10.5,527
10.55,497
10.6,510
10.65,527
10.7,493
10.75,553
10.8,504
10.85,491
10.9,554
10.95,500
11,512
11.05,527
11.1,511
11.15,484
11.2,540
11.25,499
11.3,472
11.35,489
11.4,507
11.45,503
11.5,511
11.55,500
11.6,501
11.65,493
11.7,524
11.75,480
11.8,482
11.85,508
11.9,523
11.95,527
12,516
12.05,480
12.1,515
12.15,520
12.2,477
12.25,494
12.3,508
12.35,491
12.4,535
12.45,499
12.5,506
12.55,540
12.6,490
12.65,478
12.7,528
12.75,515
12.8,465
12.85,461
12.9,485
12.95,458
13,453
13.05,454
13.1,480
13.15,455
13.2,463
13.25,466
13.3,468
13.35,484
13.4,432
13.45,445
13.5,447
13.55,448
13.6,457
13.65,427
13.7,519
13.75,443
13.8,433
13.85,427
13.9,443
13.95,437
14,432
14.05,419
14.1,493
14.15,457
14.2,423
14.25,445
14.3,460
14.35,418
14.4,442
14.45,456
14.5,440
14.55,438
14.6,428
14.65,447
14.7,416
14.75,437
14.8,417
14.85,415
14.9,418
14.95,414
15,434
15.05,388
15.1,438
15.15,402
15.2,450
15.25,400
15.3,373
15.35,389
15.4,419
15.45,439
15.5,374
15.55,410
15.6,410
15.65,414
15.7,389
15.75,381
15.8,413
15.85,388
15.9,397
15.95,389
16,399
16.05,381
16.1,336
16.15,399
16.2,380
16.25,381
16.3,367
16.35,381
16.4,377
16.45,351
16.5,368
16.55,401
16.6,354
16.65,385
16.7,374
16.75,399
16.8,403
16.85,375
16.9,388
16.95,378
17,385
17.05,390
17.1,375
17.15,347
17.2,392
17.25,342
17.3,355
17.35,350
17.4,363
17.45,347
17.5,414
17.55,349
17.6,344
17.65,367
17.7,362
17.75,364
17.8,380
17.85,360
17.9,330
17.95,356
18,330
18.05,379
18.1,330
18.15,346
18.2,383
18.25,350
18.3,370
18.35,342
18.4,337
18.45,342
18.5,362
18.55,337
18.6,372
18.65,335
18.7,349
18.75,300
18.8,388
18.85,363
18.9,346
18.95,367
19,379
19.05,389
19.1,380
19.15,399
19.2,424
19.25,479
19.3,564
19.35,773
19.4,1224
19.45,1208
19.5,811
19.55,493
19.6,442
19.65,419
19.7,427
19.75,500
19.8,509
19.85,598
19.9,807
19.95,877
20,610
20.05,387
20.1,366
20.15,382
20.2,329
20.25,318
20.3,376
20.35,369
20.4,330
20.45,373
20.5,350
20.55,329
20.6,321
20.65,344
20.7,337
20.75,332
20.8,322
20.85,318
20.9,285
20.95,333
21,299
21.05,342
21.1,312
21.15,324
21.2,295
21.25,350
21.3,333
21.35,323
21.4,378
21.45,353
21.5,386
21.55,417
21.6,405
21.65,301
21.7,328
21.75,341
21.8,304
21.85,381
21.9,379
21.95,317
22,346
22.05,369
22.1,314
22.15,314
22.2,322
22.25,303
22.3,286
22.35,298
22.4,287
22.45,364
22.5,276
22.55,318
22.6,325
22.65,342
22.7,358
22.75,341
22.8,341
22.85,325
22.9,321
22.95,323
23,336
23.05,326
23.1,330
23.15,352
23.2,347
23.25,361
23.3,363
23.35,394
23.4,410
23.45,454
23.5,499
23.55,581
23.6,681
23.65,944
23.7,1493
23.75,2308
23.8,3785
23.85,5770
23.9,6936
23.95,4658
24,2440
24.05,1477
24.1,1468
24.15,1765
24.2,2756
24.25,4500
24.3,4730
24.35,3396
24.4,1497
24.45,732
24.5,498
24.55,420
24.6,433
24.65,382
24.7,381
24.75,366
24.8,370
24.85,377
24.9,387
24.95,331
25,356
25.05,344
25.1,340
25.15,305
25.2,320
25.25,323
25.3,283
25.35,295
25.4,304
25.45,285
25.5,286
25.55,304
25.6,296
25.65,325
25.7,361
25.75,343
25.8,353
25.85,391
25.9,319
25.95,292
26,325
26.05,289
26.1,317
26.15,279
26.2,296
26.25,257
26.3,303
26.35,274
26.4,267
26.45,301
26.5,292
26.55,293
26.6,332
26.65,297
26.7,331
26.75,313
26.8,338
26.85,331
26.9,302
26.95,303
27,279
27.05,282
27.1,281
27.15,294
27.2,309
27.25,279
27.3,279
27.35,323
27.4,314
27.45,340
27.5,381
27.55,537
27.6,794
27.65,1311
27.7,1900
27.75,1803
27.8,1122
27.85,562
27.9,400
27.95,309
28,348
28.05,299
28.1,290
28.15,302
28.2,283
28.25,302
28.3,348
28.35,409
28.4,488
28.45,420
28.5,425
28.55,338
28.6,369
28.65,345
28.7,348
28.75,351
28.8,293
28.85,300
28.9,251
28.95,258
29,276
29.05,255
29.1,279
29.15,271
29.2,269
29.25,308
29.3,319
29.35,388
29.4,521
29.45,811
29.5,1067
29.55,953
29.6,675
29.65,387
29.7,339
29.75,284
29.8,297
29.85,242
29.9,257
29.95,240
30,242
30.05,249
30.1,241
30.15,239
30.2,240
30.25,255
30.3,258
30.35,227
30.4,233
30.45,232
30.5,263
30.55,290
30.6,252
30.65,258
30.7,274
30.75,255
30.8,231
30.85,260
30.9,245
30.95,287
31,245
31.05,245
31.1,227
31.15,260
31.2,250
31.25,238
31.3,228
31.35,271
31.4,232
31.45,235
31.5,254
31.55,253
31.6,286
31.65,261
31.7,257
31.75,210
31.8,220
31.85,246
31.9,215
31.95,227
32,215
32.05,233
32.1,218
32.15,216
32.2,251
32.25,234
32.3,271
32.35,263
32.4,334
32.45,390
32.5,471
32.55,439
32.6,363
32.65,345
32.7,287
32.75,299
32.8,284
32.85,252
32.9,266
32.95,249
33,272
33.05,228
33.1,243
33.15,286
33.2,271
33.25,293
33.3,294
33.35,262
33.4,260
33.45,309
33.5,312
33.55,331
33.6,474
33.65,670
33.7,868
33.75,910
33.8,707
33.85,621
33.9,627
33.95,842
34,1466
34.05,2404
34.1,2399
34.15,1862
34.2,1294
34.25,1331
34.3,1638
34.35,2285
34.4,2284
34.45,1838
34.5,1654
34.55,1730
34.6,1921
34.65,1528
34.7,1055
34.75,602
34.8,364
34.85,307
34.9,299
34.95,298
35,241
35.05,241
35.1,232
35.15,230
35.2,209
35.25,193
35.3,206
35.35,205
35.4,227
35.45,217
35.5,226
35.55,213
35.6,218
35.65,211
35.7,193
35.75,206
35.8,215
35.85,235
35.9,174
35.95,192
36,179
36.05,201
36.1,229
36.15,206
36.2,199
36.25,238
36.3,206
36.35,207
36.4,193
36.45,208
36.5,209
36.55,182
36.6,204
36.65,213
36.7,210
36.75,201
36.8,183
36.85,220
36.9,177
36.95,184
37,201
37.05,195
37.1,178
37.15,172
37.2,213
37.25,202
37.3,188
37.35,199
37.4,220
37.45,208
37.5,197
37.55,211
37.6,191
37.65,184
37.7,183
37.75,191
37.8,225
37.85,211
37.9,216
37.95,229
38,204
38.05,226
38.1,205
38.15,204
38.2,194
38.25,201
38.3,197
38.35,199
38.4,202
38.45,186
38.5,187
38.55,209
38.6,226
38.65,202
38.7,220
38.75,196
38.8,203
38.85,213
38.9,204
38.95,190
39,207
39.05,231
39.1,208
39.15,202
39.2,239
39.25,234
39.3,237
39.35,355
39.4,536
39.45,673
39.5,713
39.55,568
39.6,466
39.65,332
39.7,252
39.75,258
39.8,215
39.85,233
39.9,224
39.95,184
40,221
40.05,208
40.1,193
40.15,189
40.2,203
40.25,239
40.3,224
40.35,258
40.4,257
40.45,304
40.5,416
40.55,402
40.6,364
40.65,314
40.7,273
40.75,234
40.8,237
40.85,203
40.9,192
40.95,217
41,206
41.05,197
41.1,184
41.15,180
41.2,185
41.25,204
41.3,177
41.35,223
41.4,191
41.45,223
41.5,195
41.55,201
41.6,213
41.65,251
41.7,249
41.75,299
41.8,369
41.85,470
41.9,777
41.95,1184
42,1501
42.05,1322
42.1,1010
42.15,787
42.2,476
42.25,348
42.3,337
42.35,267
42.4,257
42.45,265
42.5,261
42.55,265
42.6,287
42.65,326
42.7,327
42.75,321
42.8,327
42.85,479
42.9,634
42.95,1067
43,1299
43.05,1075
43.1,772
43.15,601
43.2,340
43.25,220
43.3,251
43.35,258
43.4,196
43.45,249
43.5,208
43.55,171
43.6,194
43.65,218
43.7,209
43.75,198
43.8,201
43.85,213
43.9,285
43.95,239
44,333
44.05,421
44.1,633
44.15,961
44.2,1121
44.25,936
44.3,816
44.35,561
44.4,376
44.45,322
44.5,291
44.55,292
44.6,303
44.65,360
44.7,401
44.75,516
44.8,861
44.85,1555
44.9,1822
44.95,1556
45,1240
45.05,936
45.1,545
45.15,338
45.2,275
45.25,286
45.3,252
45.35,210
45.4,202
45.45,182
45.5,184
45.55,210
45.6,189
45.65,206
45.7,173
45.75,185
45.8,169
45.85,171
45.9,186
45.95,178
46,185
46.05,200
46.1,192
46.15,199
46.2,200
46.25,188
46.3,220
46.35,230
46.4,195
46.45,237
46.5,300
46.55,312
46.6,387
46.65,507
46.7,836
46.75,1410
46.8,1738
46.85,1530
46.9,1405
46.95,1392
47,1386
47.05,1189
47.1,900
47.15,731
47.2,517
47.25,302
47.3,243
47.35,219
47.4,200
47.45,188
47.5,187
47.55,181
47.6,177
47.65,180
47.7,186
47.75,178
47.8,167
47.85,169
47.9,187
47.95,211
48,186
48.05,219
48.1,187
48.15,201
48.2,169
48.25,190
48.3,194
48.35,175
48.4,166
48.45,158
48.5,178
48.55,186
48.6,184
48.65,183
48.7,166
48.75,188
48.8,199
48.85,271
48.9,349
48.95,354
49,308
49.05,289
49.1,239
49.15,224
49.2,187
49.25,165
49.3,192
49.35,177
49.4,166
49.45,173
49.5,147
49.55,157
49.6,200
49.65,192
49.7,256
49.75,295
49.8,296
49.85,297
49.9,269
49.95,234
50,205
50.05,157
50.1,164
50.15,161
50.2,191
50.25,143
50.3,156
50.35,130
50.4,169
50.45,170
50.5,148
50.55,158
50.6,142
50.65,144
50.7,161
50.75,144
50.8,157
50.85,143
50.9,149
50.95,139
51,154
51.05,139
51.1,135
51.15,134
51.2,132
51.25,140
51.3,153
51.35,131
51.4,153
51.45,145
51.5,144
51.55,128
51.6,148
51.65,152
51.7,141
51.75,139
51.8,130
51.85,140
51.9,151
51.95,140
52,138
52.05,152
52.1,173
52.15,124
52.2,148
52.25,156
52.3,130
52.35,165
52.4,137
52.45,154
52.5,165
52.55,182
52.6,202
52.65,249
52.7,212
52.75,217
52.8,188
52.85,170
52.9,182
52.95,166
53,144
53.05,166
53.1,171
53.15,152
53.2,141
53.25,137
53.3,182
53.35,185
53.4,162
53.45,165
53.5,188
53.55,200
53.6,170
53.65,212
53.7,232
53.75,231
53.8,197
53.85,184
53.9,166
53.95,170
54,134
54.05,136
54.1,125
54.15,170
54.2,161
54.25,197
54.3,236
54.35,244
54.4,226
54.45,225
54.5,212
54.55,207
54.6,322
54.65,365
54.7,541
54.75,479
54.8,411
54.85,422
54.9,351
54.95,240
55,187
55.05,200
55.1,178
55.15,164
55.2,171
55.25,177
55.3,179
55.35,171
55.4,160
55.45,174
55.5,204
55.55,205
55.6,305
55.65,395
55.7,538
55.75,572
55.8,437
55.85,418
55.9,392
55.95,282
56,206
56.05,214
56.1,229
56.15,231
56.2,306
56.25,388
56.3,487
56.35,499
56.4,406
56.45,356
56.5,297
56.55,243
56.6,181
56.65,171
56.7,174
56.75,136
56.8,149
56.85,135
56.9,140
56.95,149
57,146
57.05,153
57.1,156
57.15,186
57.2,238
57.25,280
57.3,280
57.35,257
57.4,236
57.45,239
57.5,176
57.55,142
57.6,146
57.65,134
57.7,143
57.75,168
57.8,178
57.85,156
57.9,151
57.95,166
58,147
58.05,140
58.1,161
58.15,144
58.2,160
58.25,168
58.3,204
58.35,159
58.4,174
58.45,152
58.5,151
58.55,138
58.6,150
58.65,135
58.7,135
58.75,126
58.8,127
58.85,152
58.9,140
58.95,156
59,201
59.05,323
59.1,427
59.15,387
59.2,322
59.25,279
59.3,260
59.35,210
59.4,187
59.45,155
59.5,161
59.55,142
59.6,126
59.65,148
59.7,178
59.75,178
59.8,245
59.85,333
59.9,277
59.95,263
60,244
60.05,232
60.1,197
60.15,164
60.2,167
60.25,150
60.3,169
60.35,171
60.4,181
60.45,195
60.5,216
60.55,265
60.6,293
60.65,256
60.7,293
60.75,336
60.8,370
60.85,425
60.9,378
60.95,422
61,418
61.05,505
61.1,578
61.15,481
61.2,591
61.25,897
61.3,797
61.35,416
61.4,424
61.45,503
61.5,400
61.55,280
61.6,229
61.65,235
61.7,218
61.75,163
61.8,168
61.85,180
61.9,161
61.95,199
62,200
62.05,315
62.1,307
62.15,269
62.2,248
62.25,283
62.3,224
62.35,174
62.4,158
62.45,166
62.5,191
62.55,210
62.6,278
62.65,244
62.7,241
62.75,221
62.8,220
62.85,170
62.9,156
62.95,152
63,139
63.05,140
63.1,137
63.15,110
63.2,131
63.25,116
63.3,119
63.35,120
63.4,117
63.45,125
63.5,136
63.55,110
63.6,116
63.65,127
63.7,115
63.75,127
63.8,111
63.85,138
63.9,124
63.95,134
64,122
64.05,122
64.1,128
64.15,130
64.2,129
64.25,135
64.3,127
64.35,129
64.4,150
64.45,108
64.5,113
64.55,109
64.6,127
64.65,103
64.7,118
64.75,126
64.8,122
64.85,118
64.9,127
64.95,93
65,111
65.05,94
65.1,124
65.15,119
65.2,84
65.25,111
65.3,153
65.35,127
65.4,132
65.45,131
65.5,109
65.55,120
65.6,127
65.65,128
65.7,117
65.75,143
65.8,115
65.85,110
65.9,118
65.95,124
66,117
66.05,115
66.1,119
66.15,132
66.2,124
66.25,118
66.3,119
66.35,125
66.4,120
66.45,120
66.5,124
66.55,120
66.6,130
66.65,122
66.7,130
66.75,131
66.8,105
66.85,132
66.9,121
66.95,136
67,114
67.05,125
67.1,134
67.15,104
67.2,138
67.25,112
67.3,136
67.35,127
67.4,127
67.45,129
67.5,125
67.55,123
67.6,129
67.65,145
67.7,142
67.75,156
67.8,146
67.85,159
67.9,177
67.95,191
68,208
68.05,278
68.1,404
68.15,541
68.2,556
68.25,436
68.3,429
68.35,415
68.4,350
68.45,322
68.5,270
68.55,321
68.6,414
68.65,584
68.7,576
68.75,405
68.8,364
68.85,406
68.9,409
68.95,301
69,213
69.05,188
69.1,165
69.15,168
69.2,164
69.25,161
69.3,167
69.35,168
69.4,166
69.45,187
69.5,224
69.55,270
69.6,346
69.65,339
69.7,313
69.75,319
69.8,342
69.85,349
69.9,276
69.95,241
70,258
70.05,206
70.1,168
70.15,166
70.2,160
70.25,173
70.3,163
70.35,196
70.4,233
70.45,305
70.5,474
70.55,512
70.6,399
70.65,290
70.7,373
70.75,356
70.8,333
70.85,303
70.9,378
70.95,423
71,434
71.05,477
71.1,399
71.15,362
71.2,301
71.25,280
71.3,273
71.35,218
71.4,179
71.45,161
71.5,145
71.55,136
71.6,145
71.65,131
71.7,140
71.75,153
71.8,181
71.85,191
71.9,162
71.95,152
72,152
72.05,159
72.1,150
72.15,129
72.2,114
72.25,133
72.3,149
72.35,136
72.4,165
72.45,181
72.5,188
72.55,206
72.6,166
72.65,153
72.7,154
72.75,170
72.8,153
72.85,152
72.9,176
72.95,245
73,301
73.05,316
73.1,233
73.15,186
73.2,215
73.25,218
73.3,173
73.35,172
73.4,143
73.45,125
73.5,132
73.55,104
73.6,131
73.65,135
73.7,119
73.75,136
73.8,125
73.85,105
73.9,106
73.95,99
74,110
74.05,115
74.1,97
74.15,120
74.2,92
74.25,105
74.3,119
74.35,98
74.4,128
74.45,136
74.5,128
74.55,116
74.6,106
74.65,112
74.7,99
74.75,147
74.8,144
74.85,88
74.9,120
74.95,98
75,104
75.05,117
75.1,106
75.15,115
75.2,106
75.25,130
75.3,105
75.35,122
75.4,127
75.45,136
75.5,116
75.55,115
75.6,115
75.65,128
75.7,118
75.75,124
75.8,133
75.85,154
75.9,122
75.95,134
76,140
76.05,128
76.1,166
76.15,188
76.2,241
76.25,263
76.3,192
76.35,173
76.4,175
76.45,193
76.5,203
76.55,154
76.6,174
76.65,149
76.7,182
76.75,144
76.8,167
76.85,194
76.9,230
76.95,320
77,349
77.05,336
77.1,295
77.15,319
77.2,313
77.25,317
77.3,298
77.35,294
77.4,343
77.45,347
77.5,265
77.55,200
77.6,240
77.65,241
77.7,245
77.75,220
77.8,182
77.85,159
77.9,151
77.95,169
78,148
78.05,151
78.1,139
78.15,135
78.2,143
78.25,159
78.3,128
78.35,135
78.4,118
78.45,112
78.5,142
78.55,128
78.6,158
78.65,134
78.7,198
78.75,264
78.8,305
78.85,271
78.9,238
78.95,185
79,214
79.05,167
79.1,175
79.15,140
79.2,127
79.25,131
79.3,115
79.35,116
79.4,109
79.45,112
79.5,127
79.55,107
79.6,133
79.65,134
79.7,165
79.75,199
79.8,246
79.85,275
79.9,220
79.95,172
80,195
80.05,212
80.1,194
80.15,147
80.2,125
80.25,106
80.3,119
80.35,124
80.4,114
80.45,117
80.5,114
80.55,103
80.6,125
80.65,107
80.7,104
80.75,110
80.8,115
80.85,101
80.9,105
80.95,125
81,117
81.05,99
81.1,132
81.15,120
81.2,147
81.25,136
81.3,161
81.35,126
81.4,152
81.45,152
81.5,216
81.55,216
81.6,223
81.65,193
81.7,169
81.75,149
81.8,176
81.85,174
81.9,165
81.95,156
82,129
82.05,127
82.1,114
82.15,112
82.2,126
82.25,122
82.3,137
82.35,160
82.4,178
82.45,189
82.5,197
82.55,138
82.6,171
82.65,139
82.7,152
82.75,159
82.8,142
82.85,159
82.9,206
82.95,158
83,146
83.05,112
83.1,141
83.15,155
83.2,144
83.25,110
83.3,118
83.35,115
83.4,110
83.45,108
83.5,118
83.55,124
83.6,123
83.65,112
83.7,140
83.75,178
83.8,185
83.85,136
83.9,124
83.95,137
84,131
84.05,132
84.1,129
84.15,125
84.2,97
84.25,117
84.3,107
84.35,117
84.4,108
84.45,108
84.5,90
84.55,128
84.6,104
84.65,117
84.7,131
84.75,107
84.8,105
84.85,115
84.9,112
84.95,103
85,128
85.05,144
85.1,110
85.15,126
85.2,128
85.25,125
85.3,118
85.35,113
85.4,98
85.45,119
85.5,109
85.55,118
85.6,111
85.65,136
85.7,109
85.75,103
85.8,112
85.85,105
85.9,114
85.95,108
86,118
86.05,110
86.1,126
86.15,121
86.2,105
86.25,103
86.3,109
86.35,135
86.4,113
86.45,121
86.5,150
86.55,173
86.6,227
86.65,304
86.7,335
86.75,300
86.8,272
86.85,310
86.9,387
86.95,429
87,348
87.05,277
87.1,234
87.15,234
87.2,236
87.25,201
87.3,190
87.35,157
87.4,154
87.45,166
87.5,173
87.55,189
87.6,235
87.65,198
87.7,171
87.75,145
87.8,146
87.85,149
87.9,147
87.95,177
88,144
88.05,129
88.1,133
88.15,141
88.2,131
88.25,136
88.3,153
88.35,230
88.4,322
88.45,711
88.5,904
88.55,500
88.6,263
88.65,244
88.7,286
88.75,479
88.8,440
88.85,229
88.9,164
88.95,145
89,129
89.05,149
89.1,135
89.15,141
89.2,133
89.25,169
89.3,155
89.35,195
89.4,182
89.45,193
89.5,179
89.55,180
89.6,217
89.65,164
89.7,157
89.75,167
89.8,178
89.85,158
89.9,186
89.95,218
90,171
