Bragg_angle,Intensity
\circ,a.u.
5,364
5.05,353
5.1,369
5.15,350
5.2,336
5.25,311
5.3,351
5.35,356
5.4,291
5.45,318
5.5,344
5.55,300
5.6,304
5.65,277
5.7,322
5.75,294
5.8,280
5.85,278
5.9,327
5.95,312
6,279
6.05,290
6.1,310
6.15,306
6.2,279
6.25,308
6.3,329
6.35,302
6.4,281
6.45,293
6.5,323
6.55,325
6.6,276
6.65,279
6.7,249
6.75,277
6.8,279
6.85,266
6.9,252
6.95,248
7,205
7.05,238
7.1,224
7.15,254
7.2,246
7.25,231
7.3,217
7.35,214
7.4,219
7.45,224
7.5,247
7.55,226
7.6,189
7.65,209
7.7,222
7.75,225
7.8,253
7.85,227
7.9,207
7.95,228
8,243
8.05,222
8.1,240
8.15,223
8.2,183
8.25,199
8.3,227
8.35,208
8.4,225
8.45,231
8.5,195
8.55,223
8.6,205
8.65,194
8.7,224
8.75,197
8.8,207
8.85,215
8.9,220
8.95,220
9,202
9.05,274
9.1,230
9.15,246
9.2,269
9.25,270
9.3,276
9.35,318
9.4,330
9.45,302
9.5,318
9.55,356
9.6,288
9.65,336
9.7,379
9.75,332
9.8,325
9.85,392
9.9,342
9.95,317
10,345
10.05,300
10.1,307
10.15,340
10.2,301
10.25,285
10.3,290
10.35,243
10.4,276
10.45,245
10.5,254
10.55,254
10.6,207
10.65,232
10.7,201
10.75,222
10.8,217
10.85,197
10.9,194
10.95,175
11,205
11.05,221
11.1,180
11.15,185
11.2,186
11.25,203
11.3,181
11.35,189
11.4,172
11.45,160
11.5,156
11.55,183
11.6,178
11.65,188
11.7,152
11.75,162
11.8,171
11.85,217
11.9,168
11.95,178
12,175
12.05,191
12.1,184
12.15,167
12.2,170
12.25,159
12.3,192
12.35,178
12.4,163
12.45,178
12.5,157
12.55,168
12.6,187
12.65,205
12.7,179
12.75,197
12.8,181
12.85,188
12.9,188
12.95,172
13,170
13.05,159
13.1,167
13.15,169
13.2,176
13.25,163
13.3,183
13.35,191
13.4,163
13.45,168
13.5,182
13.55,192
13.6,178
13.65,155
13.7,204
13.75,171
13.8,154
13.85,174
13.9,188
13.95,162
14,179
14.05,162
14.1,178
14.15,173
14.2,166
14.25,163
14.3,167
14.35,189
14.4,180
14.45,201
14.5,159
14.55,187
14.6,169
14.65,185
14.7,165
14.75,175
14.8,169
14.85,160
14.9,184
14.95,172
15,167
15.05,177
15.1,178
15.15,178
15.2,201
15.25,191
15.3,177
15.35,158
15.4,175
15.45,183
15.5,211
15.55,187
15.6,185
15.65,180
15.7,185
15.75,201
15.8,159
15.85,176
15.9,179
15.95,161
16,168
16.05,163
16.1,174
16.15,172
16.2,163
16.25,167
16.3,192
16.35,185
16.4,190
16.45,163
16.5,176
16.55,175
16.6,163
16.65,145
16.7,157
16.75,146
16.8,172
16.85,140
16.9,193
16.95,176
17,174
17.05,169
17.1,172
17.15,149
17.2,177
17.25,178
17.3,161
17.35,145
17.4,168
17.45,172
17.5,178
17.55,164
17.6,180
17.65,184
17.7,164
17.75,172
17.8,160
17.85,158
17.9,171
17.95,134
18,173
18.05,181
18.1,155
18.15,161
18.2,161
18.25,160
18.3,157
18.35,155
18.4,176
18.45,170
18.5,168
18.55,183
18.6,163
18.65,163
18.7,179
18.75,178
18.8,169
18.85,154
18.9,153
18.95,188
19,170
19.05,149
19.1,156
19.15,166
19.2,140
19.25,167
19.3,167
19.35,158
19.4,163
19.45,191
19.5,181
19.55,168
19.6,168
19.65,184
19.7,158
19.75,146
19.8,190
19.85,177
19.9,176
19.95,175
20,145
20.05,174
20.1,166
20.15,144
20.2,152
20.25,158
20.3,173
20.35,173
20.4,168
20.45,163
20.5,179
20.55,173
20.6,177
20.65,151
20.7,168
20.75,169
20.8,183
20.85,179
20.9,172
20.95,227
21,216
21.05,253
21.1,247
21.15,241
21.2,216
21.25,180
21.3,192
21.35,175
21.4,160
21.45,161
21.5,179
21.55,164
21.6,155
21.65,168
21.7,173
21.75,198
21.8,172
21.85,196
21.9,190
21.95,170
22,203
22.05,183
22.1,199
22.15,223
22.2,213
22.25,227
22.3,248
22.35,263
22.4,307
22.45,362
22.5,431
22.55,474
22.6,541
22.65,586
22.7,701
22.75,781
22.8,851
22.85,897
22.9,827
22.95,635
23,510
23.05,390
23.1,322
23.15,247
23.2,252
23.25,210
23.3,217
23.35,199
23.4,196
23.45,180
23.5,179
23.55,186
23.6,157
23.65,166
23.7,163
23.75,179
23.8,155
23.85,136
23.9,156
23.95,158
24,167
24.05,155
24.1,124
24.15,162
24.2,158
24.25,157
24.3,145
24.35,150
24.4,181
24.45,137
24.5,186
24.55,174
24.6,165
24.65,159
24.7,193
24.75,203
24.8,199
24.85,241
24.9,260
24.95,314
25,283
25.05,301
25.1,257
25.15,246
25.2,209
25.25,194
25.3,164
25.35,174
25.4,174
25.45,149
25.5,154
25.55,161
25.6,163
25.65,145
25.7,159
25.75,161
25.8,157
25.85,154
25.9,186
25.95,185
26,159
26.05,191
26.1,175
26.15,171
26.2,184
26.25,170
26.3,141
26.35,132
26.4,151
26.45,155
26.5,176
26.55,166
26.6,166
26.65,156
26.7,152
26.75,162
26.8,193
26.85,199
26.9,236
26.95,260
27,285
27.05,328
27.1,371
27.15,392
27.2,398
27.25,370
27.3,318
27.35,268
27.4,266
27.45,218
27.5,211
27.55,205
27.6,189
27.65,182
27.7,192
27.75,175
27.8,197
27.85,183
27.9,224
27.95,209
28,217
28.05,263
28.1,252
28.15,252
28.2,318
28.25,328
28.3,392
28.35,441
28.4,565
28.45,617
28.5,708
28.55,776
28.6,928
28.65,1058
28.7,1233
28.75,1437
28.8,1782
28.85,1984
28.9,2277
28.95,2342
29,2017
29.05,1574
29.1,1095
29.15,762
29.2,617
29.25,431
29.3,365
29.35,253
29.4,270
29.45,259
29.5,218
29.55,225
29.6,192
29.65,178
29.7,194
29.75,189
29.8,156
29.85,174
29.9,164
29.95,172
30,148
30.05,164
30.1,184
30.15,185
30.2,158
30.25,172
30.3,158
30.35,147
30.4,169
30.45,134
30.5,156
30.55,173
30.6,157
30.65,146
30.7,141
30.75,139
30.8,134
30.85,123
30.9,145
30.95,145
31,144
31.05,128
31.1,122
31.15,122
31.2,142
31.25,131
31.3,125
31.35,121
31.4,148
31.45,115
31.5,154
31.55,123
31.6,123
31.65,146
31.7,133
31.75,138
31.8,145
31.85,176
31.9,149
31.95,157
32,117
32.05,134
32.1,119
32.15,134
32.2,139
32.25,139
32.3,142
32.35,148
32.4,152
32.45,163
32.5,184
32.55,208
32.6,212
32.65,287
32.7,337
32.75,349
32.8,407
32.85,444
32.9,482
32.95,431
33,379
33.05,298
33.1,280
33.15,222
33.2,183
33.25,181
33.3,171
33.35,177
33.4,131
33.45,130
33.5,123
33.55,141
33.6,158
33.65,132
33.7,147
33.75,134
33.8,131
33.85,130
33.9,143
33.95,143
34,113
34.05,134
34.1,137
34.15,127
34.2,148
34.25,125
34.3,123
34.35,161
34.4,144
34.45,141
34.5,136
34.55,126
34.6,149
34.65,152
34.7,140
34.75,151
34.8,161
34.85,158
34.9,151
34.95,167
35,167
35.05,197
35.1,211
35.15,223
35.2,222
35.25,268
35.3,297
35.35,289
35.4,345
35.45,388
35.5,414
35.55,463
35.6,500
35.65,503
35.7,615
35.75,527
35.8,493
35.85,367
35.9,344
35.95,280
36,243
36.05,223
36.1,195
36.15,177
36.2,191
36.25,179
36.3,174
36.35,174
36.4,153
36.45,172
36.5,149
36.55,129
36.6,155
36.65,148
36.7,144
36.75,142
36.8,148
36.85,155
36.9,155
36.95,119
37,147
37.05,133
37.1,146
37.15,140
37.2,158
37.25,133
37.3,151
37.35,146
37.4,142
37.45,159
37.5,133
37.55,145
37.6,142
37.65,128
37.7,140
37.75,114
37.8,118
37.85,157
37.9,154
37.95,146
38,144
38.05,148
38.1,129
38.15,136
38.2,141
38.25,139
38.3,130
38.35,143
38.4,139
38.45,154
38.5,158
38.55,165
38.6,151
38.65,188
38.7,153
38.75,144
38.8,164
38.85,168
38.9,151
38.95,153
39,149
39.05,158
39.1,152
39.15,174
39.2,194
39.25,158
39.3,145
39.35,154
39.4,161
39.45,157
39.5,161
39.55,170
39.6,128
39.65,154
39.7,168
39.75,147
39.8,134
39.85,155
39.9,150
39.95,163
40,135
40.05,162
40.1,177
40.15,159
40.2,136
40.25,154
40.3,153
40.35,149
40.4,151
40.45,131
40.5,146
40.55,149
40.6,166
40.65,152
40.7,171
40.75,140
40.8,159
40.85,153
40.9,146
40.95,163
41,151
41.05,139
41.1,141
41.15,124
41.2,174
41.25,183
41.3,135
41.35,168
41.4,160
41.45,155
41.5,155
41.55,156
41.6,152
41.65,188
41.7,169
41.75,190
41.8,183
41.85,182
41.9,186
41.95,178
42,183
42.05,218
42.1,246
42.15,212
42.2,218
42.25,246
42.3,271
42.35,275
42.4,335
42.45,330
42.5,378
42.55,398
42.6,474
42.65,515
42.7,488
42.75,535
42.8,538
42.85,500
42.9,455
42.95,371
43,316
43.05,286
43.1,248
43.15,208
43.2,194
43.25,196
43.3,172
43.35,198
43.4,166
43.45,176
43.5,151
43.55,211
43.6,181
43.65,222
43.7,206
43.75,284
43.8,275
43.85,287
43.9,312
43.95,311
44,308
44.05,257
44.1,238
44.15,187
44.2,219
44.25,177
44.3,170
44.35,180
44.4,168
44.45,139
44.5,154
44.55,163
44.6,154
44.65,180
44.7,166
44.75,166
44.8,166
44.85,154
44.9,156
44.95,174
45,148
45.05,153
45.1,178
45.15,163
45.2,186
45.25,170
45.3,176
45.35,182
45.4,182
45.45,215
45.5,183
45.55,223
45.6,242
45.65,243
45.7,252
45.75,269
45.8,230
45.85,235
45.9,263
45.95,281
46,309
46.05,335
46.1,367
46.15,386
46.2,418
46.25,451
46.3,509
46.35,509
46.4,529
46.45,507
46.5,487
46.55,408
46.6,397
46.65,382
46.7,312
46.75,296
46.8,262
46.85,256
46.9,243
46.95,254
47,271
47.05,215
47.1,250
47.15,242
47.2,271
47.25,272
47.3,301
47.35,301
47.4,341
47.45,351
47.5,349
47.55,358
47.6,417
47.65,385
47.7,405
47.75,445
47.8,357
47.85,329
47.9,298
47.95,260
48,212
48.05,202
48.1,181
48.15,136
48.2,141
48.25,137
48.3,149
48.35,136
48.4,140
48.45,126
48.5,137
48.55,118
48.6,113
48.65,134
48.7,145
48.75,123
48.8,146
48.85,137
48.9,155
48.95,155
49,165
49.05,165
49.1,195
49.15,207
49.2,167
49.25,160
49.3,150
49.35,159
49.4,143
49.45,139
49.5,149
49.55,125
49.6,126
49.65,105
49.7,122
49.75,125
49.8,148
49.85,148
49.9,149
49.95,188
50,236
50.05,271
50.1,269
50.15,313
50.2,327
50.25,269
50.3,238
50.35,200
50.4,177
50.45,141
50.5,121
50.55,143
50.6,104
50.65,97
50.7,127
50.75,94
50.8,94
50.85,98
50.9,106
50.95,107
51,104
51.05,103
51.1,112
51.15,85
51.2,97
51.25,94
51.3,106
51.35,105
51.4,97
51.45,100
51.5,96
51.55,91
51.6,93
51.65,90
51.7,91
51.75,78
51.8,102
51.85,67
51.9,114
51.95,90
52,83
52.05,83
52.1,87
52.15,82
52.2,93
52.25,99
52.3,98
52.35,93
52.4,83
52.45,98
52.5,85
52.55,103
52.6,87
52.65,106
52.7,81
52.75,79
52.8,84
52.85,93
52.9,89
52.95,88
53,87
53.05,90
53.1,89
53.15,79
53.2,80
53.25,81
53.3,69
53.35,100
53.4,84
53.45,81
53.5,89
53.55,80
53.6,74
53.65,99
53.7,92
53.75,84
53.8,73
53.85,81
53.9,91
53.95,87
54,104
54.05,58
54.1,70
54.15,90
54.2,95
54.25,83
54.3,92
54.35,80
54.4,91
54.45,96
54.5,73
54.55,85
54.6,68
54.65,100
54.7,78
54.75,82
54.8,89
54.85,94
54.9,89
54.95,89
55,99
55.05,82
55.1,106
55.15,112
55.2,98
55.25,94
55.3,89
55.35,110
55.4,112
55.45,84
55.5,124
55.55,134
55.6,114
55.65,136
55.7,143
55.75,153
55.8,155
55.85,182
55.9,157
55.95,172
56,161
56.05,167
56.1,159
56.15,140
56.2,194
56.25,163
56.3,171
56.35,171
56.4,193
56.45,201
56.5,222
56.55,202
56.6,210
56.65,186
56.7,209
56.75,218
56.8,226
56.85,215
56.9,187
56.95,179
57,159
57.05,147
57.1,155
57.15,140
57.2,120
57.25,105
57.3,94
57.35,97
57.4,96
57.45,96
57.5,96
57.55,84
57.6,78
57.65,99
57.7,84
57.75,98
57.8,85
57.85,98
57.9,89
57.95,84
58,96
58.05,75
58.1,98
58.15,90
58.2,94
58.25,81
58.3,84
58.35,92
58.4,89
58.45,85
58.5,90
58.55,78
58.6,112
58.65,86
58.7,79
58.75,87
58.8,85
58.85,81
58.9,93
58.95,115
59,99
59.05,113
59.1,105
59.15,117
59.2,112
59.25,112
59.3,126
59.35,139
59.4,146
59.45,152
59.5,156
59.55,166
59.6,175
59.65,167
59.7,173
59.75,173
59.8,207
59.85,230
59.9,206
59.95,182
60,200
60.05,188
60.1,163
60.15,129
60.2,153
60.25,118
60.3,99
60.35,116
60.4,101
60.45,112
60.5,94
60.55,85
60.6,114
60.65,80
60.7,82
60.75,92
60.8,100
60.85,93
60.9,91
60.95,78
61,83
61.05,92
61.1,95
61.15,84
61.2,86
61.25,92
61.3,101
61.35,92
61.4,70
61.45,95
61.5,85
61.55,88
61.6,96
61.65,77
61.7,96
61.75,76
61.8,96
61.85,86
61.9,92
61.95,74
62,90
62.05,80
62.1,90
62.15,94
62.2,93
62.25,93
62.3,79
62.35,91
62.4,90
62.45,95
62.5,82
62.55,96
62.6,102
62.65,94
62.7,84
62.75,98
62.8,95
62.85,90
62.9,104
62.95,107
63,96
63.05,115
63.1,102
63.15,99
63.2,110
63.25,104
63.3,119
63.35,101
63.4,117
63.45,123
63.5,118
63.55,119
63.6,117
63.65,158
63.7,128
63.75,119
63.8,132
63.85,120
63.9,144
63.95,111
64,114
64.05,111
64.1,124
64.15,141
64.2,124
64.25,89
64.3,94
64.35,116
64.4,110
64.45,91
64.5,76
64.55,80
64.6,89
64.65,96
64.7,96
64.75,90
64.8,83
64.85,87
64.9,81
64.95,98
65,91
65.05,78
65.1,71
65.15,78
65.2,82
65.25,101
65.3,87
65.35,77
65.4,69
65.45,101
65.5,83
65.55,80
65.6,94
65.65,89
65.7,83
65.75,108
65.8,100
65.85,78
65.9,89
65.95,86
66,85
66.05,75
66.1,84
66.15,96
66.2,83
66.25,96
66.3,75
66.35,78
66.4,73
66.45,90
66.5,73
66.55,71
66.6,87
66.65,81
66.7,75
66.75,89
66.8,65
66.85,71
66.9,86
66.95,82
67,88
67.05,86
67.1,90
67.15,82
67.2,76
67.25,84
67.3,97
67.35,93
67.4,75
67.45,71
67.5,94
67.55,91
67.6,98
67.65,78
67.7,70
67.75,92
67.8,94
67.85,80
67.9,77
67.95,94
68,115
68.05,107
68.1,104
68.15,89
68.2,118
68.25,93
68.3,115
68.35,108
68.4,101
68.45,96
68.5,108
68.55,98
68.6,96
68.65,121
68.7,109
68.75,105
68.8,102
68.85,107
68.9,104
68.95,76
69,106
69.05,108
69.1,81
69.15,88
69.2,73
69.25,91
69.3,100
69.35,94
69.4,86
69.45,107
69.5,86
69.55,79
69.6,88
69.65,73
69.7,94
69.75,91
69.8,92
69.85,85
69.9,100
69.95,76
70,90
70.05,96
70.1,87
70.15,97
70.2,83
70.25,99
70.3,81
70.35,101
70.4,71
70.45,87
70.5,92
70.55,79
70.6,111
70.65,90
70.7,122
70.75,88
70.8,108
70.85,104
70.9,95
70.95,114
71,100
71.05,116
71.1,103
71.15,124
71.2,84
71.25,105
71.3,119
71.35,110
71.4,123
71.45,121
71.5,114
71.55,132
71.6,150
71.65,157
71.7,137
71.75,130
71.8,116
71.85,128
71.9,139
71.95,127
72,139
72.05,120
72.1,125
72.15,143
72.2,118
72.25,135
72.3,112
72.35,132
72.4,118
72.45,111
72.5,100
72.55,116
72.6,118
72.65,118
72.7,104
72.75,108
72.8,109
72.85,84
72.9,101
72.95,103
73,96
73.05,88
73.1,105
73.15,104
73.2,95
73.25,99
73.3,110
73.35,101
73.4,97
73.45,129
73.5,116
73.55,118
73.6,94
73.65,116
73.7,100
73.75,131
73.8,107
73.85,98
73.9,107
73.95,87
74,102
74.05,86
74.1,80
74.15,104
74.2,103
74.25,81
74.3,90
74.35,78
74.4,84
74.45,102
74.5,107
74.55,95
74.6,105
74.65,101
74.7,101
74.75,98
74.8,98
74.85,98
74.9,109
74.95,109
75,110
75.05,113
75.1,115
75.15,119
75.2,120
75.25,120
75.3,110
75.35,111
75.4,111
75.45,100
75.5,103
75.55,111
75.6,101
75.65,91
75.7,84
75.75,90
75.8,87
75.85,91
75.9,95
75.95,90
76,84
76.05,70
76.1,92
76.15,79
76.2,70
76.25,77
76.3,62
76.35,51
76.4,87
76.45,65
76.5,76
76.55,76
76.6,65
76.65,69
76.7,74
76.75,84
76.8,83
76.85,71
76.9,85
76.95,62
77,65
77.05,69
77.1,72
77.15,66
77.2,74
77.25,78
77.3,61
77.35,67
77.4,60
77.45,63
77.5,70
77.55,78
77.6,81
77.65,66
77.7,65
77.75,74
77.8,71
77.85,61
77.9,71
77.95,58
78,85
78.05,73
78.1,68
78.15,79
78.2,83
78.25,72
78.3,70
78.35,73
78.4,75
78.45,88
78.5,65
78.55,87
78.6,95
78.65,79
78.7,96
78.75,62
78.8,69
78.85,70
78.9,75
78.95,80
79,79
79.05,84
79.1,75
79.15,89
79.2,110
79.25,92
79.3,82
79.35,86
79.4,86
79.45,96
79.5,93
79.55,77
79.6,96
79.65,107
79.7,111
79.75,103
79.8,97
79.85,82
79.9,79
79.95,85
80,84
