Bragg_angle,Intensity
\circ,a.u.
9.87,251
9.9,250
9.93,269
9.96,268
9.99,226
10.02,279
10.05,237
10.08,279
10.11,251
10.14,235
10.17,236
10.2,233
10.23,229
10.26,195
10.29,210
10.32,200
10.35,203
10.38,197
10.41,183
10.44,169
10.47,174
10.5,167
10.53,137
10.56,133
10.59,135
10.62,140
10.65,157
10.68,164
10.71,140
10.74,138
10.77,143
10.8,158
10.83,143
10.86,132
10.89,127
10.92,129
10.95,139
10.98,128
11.01,148
11.04,137
11.07,123
11.1,146
11.13,131
11.16,146
11.19,143
11.22,107
11.25,145
11.28,140
11.31,151
11.34,131
11.37,154
11.4,140
11.43,117
11.46,122
11.49,137
11.52,134
11.55,159
11.58,128
11.61,136
11.64,149
11.67,126
11.7,147
11.73,140
11.76,157
11.79,126
11.82,121
11.85,147
11.88,135
11.91,129
11.94,145
11.97,138
12,138
12.03,115
12.06,132
12.09,118
12.12,133
12.15,155
12.18,125
12.21,149
12.24,136
12.27,152
12.3,130
12.33,142
12.36,143
12.39,135
12.42,124
12.45,127
12.48,124
12.51,124
12.54,140
12.57,122
12.6,136
12.63,142
12.66,130
12.69,140
12.72,137
12.75,127
12.78,130
12.81,146
12.84,125
12.87,124
12.9,132
12.93,116
12.96,133
12.99,121
13.02,150
13.05,133
13.08,124
13.11,112
13.14,111
13.17,128
13.2,106
13.23,112
13.26,134
13.29,131
13.32,122
13.35,120
13.38,121
13.41,131
13.44,119
13.47,122
13.5,116
13.53,123
13.56,116
13.59,110
13.62,141
13.65,126
13.68,117
13.71,124
13.74,129
13.77,143
13.8,130
13.83,132
13.86,105
13.89,117
13.92,137
13.95,128
13.98,144
14.01,116
14.04,107
14.07,114
14.1,104
14.13,133
14.16,134
14.19,120
14.22,120
14.25,135
14.28,156
14.31,133
14.34,125
14.37,120
14.4,106
14.43,120
14.46,116
14.49,152
14.52,150
14.55,116
14.58,151
14.61,126
14.64,112
14.67,131
14.7,127
14.73,114
14.76,117
14.79,118
14.82,126
14.85,149
14.88,121
14.91,117
14.94,102
14.97,140
15,132
15.03,117
15.06,114
15.09,125
15.12,118
15.15,100
15.18,122
15.21,107
15.24,119
15.27,144
15.3,119
15.33,106
15.36,115
15.39,102
15.42,124
15.45,114
15.48,127
15.51,121
15.54,115
15.57,128
15.6,132
15.63,116
15.66,117
15.69,112
15.72,132
15.75,129
15.78,103
15.81,112
15.84,127
15.87,114
15.9,117
15.93,139
15.96,93
15.99,105
16.02,112
16.05,118
16.08,120
16.11,126
16.14,117
16.17,117
16.2,96
16.23,119
16.26,101
16.29,103
16.32,113
16.35,99
16.38,106
16.41,98
16.44,107
16.47,112
16.5,124
16.53,107
16.56,86
16.59,94
16.62,98
16.65,107
16.68,91
16.71,114
16.74,116
16.77,92
16.8,109
16.83,104
16.86,84
16.89,97
16.92,103
16.95,99
16.98,117
17.01,110
17.04,109
17.07,124
17.1,78
17.13,105
17.16,113
17.19,93
17.22,93
17.25,103
17.28,93
17.31,94
17.34,86
17.37,102
17.4,93
17.43,100
17.46,82
17.49,97
17.52,85
17.55,95
17.58,95
17.61,97
17.64,90
17.67,83
17.7,93
17.73,88
17.76,90
17.79,92
17.82,95
17.85,92
17.88,87
17.91,85
17.94,105
17.97,90
18,91
18.03,94
18.06,93
18.09,94
18.12,105
18.15,103
18.18,72
18.21,77
18.24,96
18.27,101
18.3,84
18.33,90
18.36,83
18.39,84
18.42,90
18.45,83
18.48,104
18.51,94
18.54,101
18.57,105
18.6,94
18.63,99
18.66,90
18.69,107
18.72,72
18.75,100
18.78,87
18.81,104
18.84,86
18.87,92
18.9,108
18.93,93
18.96,104
18.99,108
19.02,110
19.05,115
19.08,120
19.11,146
19.14,154
19.17,188
19.2,201
19.23,250
19.26,315
19.29,430
19.32,529
19.35,666
19.38,691
19.41,673
19.44,526
19.47,452
19.5,347
19.53,338
19.56,280
19.59,249
19.62,246
19.65,252
19.68,233
19.71,260
19.74,260
19.77,254
19.8,293
19.83,272
19.86,305
19.89,250
19.92,215
19.95,183
19.98,130
20.01,126
20.04,117
20.07,89
20.1,92
20.13,93
20.16,102
20.19,88
20.22,92
20.25,85
20.28,109
20.31,95
20.34,101
20.37,114
20.4,90
20.43,74
20.46,95
20.49,89
20.52,95
20.55,97
20.58,103
20.61,81
20.64,81
20.67,95
20.7,90
20.73,78
20.76,86
20.79,83
20.82,77
20.85,81
20.88,90
20.91,64
20.94,70
20.97,76
21,78
21.03,88
21.06,99
21.09,80
21.12,82
21.15,97
21.18,87
21.21,87
21.24,91
21.27,92
21.3,97
21.33,87
21.36,105
21.39,97
21.42,110
21.45,106
21.48,121
21.51,121
21.54,113
21.57,112
21.6,104
21.63,94
21.66,92
21.69,94
21.72,104
21.75,112
21.78,110
21.81,95
21.84,95
21.87,89
21.9,92
21.93,93
21.96,87
21.99,96
22.02,97
22.05,95
22.08,77
22.11,115
22.14,73
22.17,80
22.2,82
22.23,85
22.26,85
22.29,81
22.32,94
22.35,101
22.38,79
22.41,82
22.44,88
22.47,69
22.5,85
22.53,78
22.56,84
22.59,103
22.62,81
22.65,86
22.68,111
22.71,69
22.74,87
22.77,93
22.8,84
22.83,110
22.86,76
22.89,90
22.92,109
22.95,113
22.98,127
23.01,118
23.04,104
23.07,109
23.1,98
23.13,107
23.16,115
23.19,110
23.22,108
23.25,116
23.28,92
23.31,133
23.34,135
23.37,153
23.4,158
23.43,200
23.46,185
23.49,222
23.52,262
23.55,319
23.58,361
23.61,474
23.64,631
23.67,884
23.7,1100
23.73,1559
23.76,2312
23.79,3181
23.82,3975
23.85,3987
23.88,3407
23.91,2853
23.94,2215
23.97,1681
24,1549
24.03,1455
24.06,1362
24.09,1397
24.12,1385
24.15,1537
24.18,1610
24.21,1614
24.24,1383
24.27,1083
24.3,862
24.33,569
24.36,404
24.39,327
24.42,243
24.45,210
24.48,166
24.51,163
24.54,150
24.57,143
24.6,124
24.63,149
24.66,104
24.69,130
24.72,110
24.75,105
24.78,108
24.81,102
24.84,104
24.87,121
24.9,92
24.93,105
24.96,124
24.99,110
25.02,100
25.05,92
25.08,74
25.11,97
25.14,80
25.17,80
25.2,100
25.23,97
25.26,76
25.29,95
25.32,96
25.35,98
25.38,82
25.41,87
25.44,92
25.47,91
25.5,88
25.53,92
25.56,104
25.59,81
25.62,90
25.65,66
25.68,72
25.71,88
25.74,69
25.77,78
25.8,75
25.83,88
25.86,99
25.89,101
25.92,69
25.95,102
25.98,78
26.01,83
26.04,74
26.07,93
26.1,83
26.13,87
26.16,85
26.19,94
26.22,67
26.25,79
26.28,79
26.31,101
26.34,86
26.37,102
26.4,93
26.43,78
26.46,91
26.49,79
26.52,82
26.55,80
26.58,77
26.61,67
26.64,72
26.67,74
26.7,78
26.73,78
26.76,71
26.79,64
26.82,78
26.85,75
26.88,65
26.91,76
26.94,97
26.97,80
27,77
27.03,104
27.06,86
27.09,74
27.12,85
27.15,80
27.18,80
27.21,82
27.24,75
27.27,72
27.3,85
27.33,82
27.36,93
27.39,91
27.42,91
27.45,125
27.48,133
27.51,135
27.54,187
27.57,251
27.6,330
27.63,491
27.66,525
27.69,474
27.72,368
27.75,242
27.78,190
27.81,115
27.84,99
27.87,95
27.9,86
27.93,77
27.96,82
27.99,85
28.02,70
28.05,70
28.08,67
28.11,96
28.14,74
28.17,68
28.2,63
28.23,76
28.26,78
28.29,66
28.32,81
28.35,72
28.38,68
28.41,86
28.44,90
28.47,77
28.5,76
28.53,71
28.56,78
28.59,79
28.62,76
28.65,61
28.68,70
28.71,80
28.74,88
28.77,77
28.8,86
28.83,83
28.86,72
28.89,79
28.92,81
28.95,74
28.98,105
29.01,106
29.04,104
29.07,143
29.1,179
29.13,181
29.16,228
29.19,425
29.22,882
29.25,1450
29.28,1622
29.31,1376
29.34,987
29.37,715
29.4,387
29.43,263
29.46,208
29.49,191
29.52,168
29.55,183
29.58,144
29.61,118
29.64,113
29.67,90
29.7,96
29.73,73
29.76,82
29.79,62
29.82,85
29.85,85
29.88,69
29.91,65
29.94,71
29.97,70
30,71
30.03,77
30.06,83
30.09,78
30.12,73
30.15,69
30.18,73
30.21,71
30.24,66
30.27,75
30.3,78
30.33,80
30.36,81
30.39,98
30.42,78
30.45,74
30.48,76
30.51,73
30.54,68
30.57,83
30.6,74
30.63,82
30.66,79
30.69,92
30.72,67
30.75,71
30.78,70
30.81,60
30.84,72
30.87,78
30.9,68
30.93,69
30.96,74
30.99,80
31.02,58
31.05,65
31.08,95
31.11,84
31.14,80
31.17,76
31.2,69
31.23,90
31.26,58
31.29,67
31.32,74
31.35,70
31.38,86
31.41,52
31.44,62
31.47,76
31.5,57
31.53,51
31.56,83
31.59,68
31.62,69
31.65,72
31.68,49
31.71,66
31.74,61
31.77,61
31.8,51
31.83,80
31.86,76
31.89,56
31.92,58
31.95,66
31.98,67
32.01,69
32.04,72
32.07,65
32.1,62
32.13,62
32.16,87
32.19,71
32.22,66
32.25,91
32.28,91
32.31,98
32.34,86
32.37,94
32.4,103
32.43,103
32.46,104
32.49,115
32.52,116
32.55,98
32.58,92
32.61,95
32.64,101
32.67,79
32.7,82
32.73,69
32.76,89
32.79,78
32.82,82
32.85,76
32.88,85
32.91,73
32.94,95
32.97,79
33,85
33.03,101
33.06,94
33.09,104
33.12,100
33.15,107
33.18,123
33.21,119
33.24,119
33.27,131
33.3,131
33.33,136
33.36,164
33.39,149
33.42,174
33.45,180
33.48,233
33.51,295
33.54,329
33.57,427
33.6,439
33.63,592
33.66,619
33.69,639
33.72,625
33.75,593
33.78,552
33.81,552
33.84,490
33.87,566
33.9,570
33.93,658
33.96,818
33.99,945
34.02,1030
34.05,1036
34.08,945
34.11,888
34.14,862
34.17,795
34.2,801
34.23,760
34.26,795
34.29,834
34.32,837
34.35,932
34.38,972
34.41,1084
34.44,1251
34.47,1441
34.5,1553
34.53,1526
34.56,1295
34.59,1007
34.62,858
34.65,587
34.68,424
34.71,302
34.74,223
34.77,187
34.8,169
34.83,119
34.86,144
34.89,116
34.92,134
34.95,99
34.98,101
35.01,88
35.04,99
35.07,80
35.1,90
35.13,91
35.16,84
35.19,74
35.22,93
35.25,79
35.28,85
35.31,63
35.34,84
35.37,67
35.4,75
35.43,62
35.46,75
35.49,78
35.52,73
35.55,90
35.58,64
35.61,64
35.64,62
35.67,82
35.7,81
35.73,77
35.76,104
35.79,120
35.82,173
35.85,210
35.88,164
35.91,155
35.94,157
35.97,127
36,98
36.03,73
36.06,80
36.09,79
36.12,73
36.15,60
36.18,64
36.21,74
36.24,67
36.27,59
36.3,58
36.33,72
36.36,61
36.39,76
36.42,59
36.45,55
36.48,71
36.51,75
36.54,62
36.57,70
36.6,66
36.63,59
36.66,65
36.69,56
36.72,66
36.75,58
36.78,52
36.81,69
36.84,54
36.87,57
36.9,58
36.93,64
36.96,64
36.99,57
37.02,72
37.05,53
37.08,51
37.11,63
37.14,50
37.17,62
37.2,57
37.23,64
37.26,68
37.29,63
37.32,70
37.35,67
37.38,63
37.41,54
37.44,69
37.47,65
37.5,76
37.53,60
37.56,62
37.59,70
37.62,62
37.65,78
37.68,66
37.71,88
37.74,88
37.77,81
37.8,92
37.83,92
37.86,64
37.89,94
37.92,72
37.95,77
37.98,73
38.01,73
38.04,76
38.07,71
38.1,68
38.13,74
38.16,91
38.19,79
38.22,65
38.25,76
38.28,73
38.31,68
38.34,71
38.37,78
38.4,60
38.43,71
38.46,50
38.49,59
38.52,78
38.55,61
38.58,69
38.61,62
38.64,67
38.67,65
38.7,71
38.73,65
38.76,65
38.79,60
38.82,64
38.85,79
38.88,65
38.91,60
38.94,65
38.97,79
39,63
39.03,75
39.06,78
39.09,90
39.12,92
39.15,96
39.18,123
39.21,136
39.24,165
39.27,224
39.3,293
39.33,332
39.36,427
39.39,500
39.42,499
39.45,516
39.48,435
39.51,375
39.54,306
39.57,239
39.6,203
39.63,175
39.66,133
39.69,137
39.72,120
39.75,116
39.78,120
39.81,129
39.84,108
39.87,96
39.9,108
39.93,91
39.96,84
39.99,91
40.02,113
40.05,113
40.08,109
40.11,104
40.14,103
40.17,118
40.2,124
40.23,121
40.26,130
40.29,137
40.32,140
40.35,166
40.38,178
40.41,199
40.44,156
40.47,169
40.5,150
40.53,129
40.56,133
40.59,119
40.62,87
40.65,95
40.68,70
40.71,77
40.74,68
40.77,90
40.8,75
40.83,80
40.86,69
40.89,79
40.92,72
40.95,66
40.98,61
41.01,68
41.04,73
41.07,68
41.1,89
41.13,75
41.16,87
41.19,65
41.22,73
41.25,66
41.28,86
41.31,65
41.34,66
41.37,74
41.4,98
41.43,65
41.46,80
41.49,83
41.52,100
41.55,100
41.58,109
41.61,135
41.64,159
41.67,191
41.7,191
41.73,219
41.76,351
41.79,456
41.82,625
41.85,847
41.88,1171
41.91,1310
41.94,1379
41.97,1217
42,1083
42.03,996
42.06,835
42.09,697
42.12,505
42.15,375
42.18,340
42.21,296
42.24,263
42.27,220
42.3,200
42.33,211
42.36,211
42.39,206
42.42,202
42.45,216
42.48,207
42.51,194
42.54,196
42.57,218
42.6,233
42.63,249
42.66,265
42.69,265
42.72,297
42.75,352
42.78,391
42.81,446
42.84,472
42.87,538
42.9,514
42.93,466
42.96,399
42.99,418
43.02,392
43.05,316
43.08,255
43.11,186
43.14,209
43.17,169
43.2,117
43.23,108
43.26,112
43.29,96
43.32,100
43.35,106
43.38,92
43.41,70
43.44,88
43.47,77
43.5,77
43.53,67
43.56,78
43.59,71
43.62,77
43.65,74
43.68,70
43.71,79
43.74,66
43.77,98
43.8,96
43.83,89
43.86,106
43.89,100
43.92,102
43.95,137
43.98,154
44.01,156
44.04,221
44.07,246
44.1,317
44.13,347
44.16,383
44.19,326
44.22,314
44.25,333
44.28,320
44.31,266
44.34,281
44.37,263
44.4,240
44.43,276
44.46,263
44.49,272
44.52,270
44.55,252
44.58,305
44.61,309
44.64,314
44.67,389
44.7,483
44.73,577
44.76,722
44.79,795
44.82,827
44.85,725
44.88,607
44.91,539
44.94,486
44.97,312
45,265
45.03,186
45.06,132
45.09,130
45.12,103
45.15,97
45.18,86
45.21,89
45.24,69
45.27,73
45.3,63
45.33,80
45.36,65
45.39,69
45.42,77
45.45,79
45.48,55
45.51,73
45.54,54
45.57,50
45.6,77
45.63,68
45.66,49
45.69,54
45.72,73
45.75,63
45.78,69
45.81,51
45.84,61
45.87,65
45.9,63
45.93,70
45.96,54
45.99,86
46.02,46
46.05,59
46.08,83
46.11,72
46.14,71
46.17,78
46.2,69
46.23,66
46.26,60
46.29,68
46.32,69
46.35,66
46.38,79
46.41,102
46.44,77
46.47,98
46.5,106
46.53,114
46.56,158
46.59,195
46.62,257
46.65,365
46.68,473
46.71,560
46.74,648
46.77,630
46.8,600
46.83,600
46.86,522
46.89,502
46.92,444
46.95,392
46.98,357
47.01,278
47.04,241
47.07,187
47.1,186
47.13,116
47.16,121
47.19,92
47.22,127
47.25,155
47.28,135
47.31,134
47.34,121
47.37,102
47.4,86
47.43,84
47.46,70
47.49,82
47.52,68
47.55,54
47.58,82
47.61,58
47.64,57
47.67,58
47.7,63
47.73,49
47.76,70
47.79,62
47.82,60
47.85,58
47.88,83
47.91,83
47.94,69
47.97,56
48,75
48.03,70
48.06,86
48.09,81
48.12,70
48.15,57
48.18,65
48.21,64
48.24,62
48.27,89
48.3,101
48.33,105
48.36,86
48.39,102
48.42,87
48.45,79
48.48,72
48.51,93
48.54,48
48.57,75
48.6,67
48.63,65
48.66,74
48.69,97
48.72,85
48.75,111
48.78,140
48.81,170
48.84,170
48.87,171
48.9,164
48.93,140
48.96,129
48.99,136
49.02,116
49.05,98
49.08,100
49.11,94
49.14,84
49.17,63
49.2,93
49.23,64
49.26,63
49.29,69
49.32,59
49.35,65
49.38,67
49.41,72
49.44,74
49.47,71
49.5,80
49.53,82
49.56,78
49.59,80
49.62,93
49.65,106
49.68,101
49.71,86
49.74,99
49.77,100
49.8,75
49.83,81
49.86,84
49.89,80
49.92,66
49.95,65
49.98,64
50.01,52
50.04,50
50.07,66
50.1,60
50.13,52
50.16,68
50.19,61
50.22,50
50.25,51
50.28,56
50.31,44
50.34,61
50.37,41
50.4,47
50.43,48
50.46,51
50.49,48
50.52,52
50.55,40
50.58,59
50.61,64
50.64,56
50.67,60
50.7,41
50.73,55
50.76,48
50.79,42
50.82,46
50.85,42
50.88,43
50.91,39
50.94,37
50.97,47
51,37
51.03,50
51.06,46
51.09,49
51.12,55
51.15,53
51.18,41
51.21,45
51.24,47
51.27,37
51.3,40
51.33,37
51.36,49
51.39,45
51.42,47
51.45,46
51.48,54
51.51,39
51.54,45
51.57,54
51.6,53
51.63,50
51.66,45
51.69,52
51.72,50
51.75,40
51.78,40
51.81,40
51.84,55
51.87,45
51.9,41
51.93,38
51.96,49
51.99,51
52.02,48
52.05,40
52.08,49
52.11,38
52.14,46
52.17,52
52.2,57
52.23,53
52.26,48
52.29,57
52.32,60
52.35,45
52.38,71
52.41,76
52.44,67
52.47,83
52.5,72
52.53,94
52.56,101
52.59,115
52.62,128
52.65,110
52.68,116
52.71,101
52.74,102
52.77,92
52.8,89
52.83,91
52.86,95
52.89,79
52.92,91
52.95,64
52.98,75
53.01,73
53.04,81
53.07,90
53.1,79
53.13,58
53.16,85
53.19,74
53.22,78
53.25,98
53.28,84
53.31,85
53.34,72
53.37,86
53.4,76
53.43,115
53.46,92
53.49,116
53.52,117
53.55,123
53.58,151
53.61,131
53.64,137
53.67,129
53.7,122
53.73,108
53.76,98
53.79,108
53.82,95
53.85,77
53.88,104
53.91,92
53.94,100
53.97,95
54,85
54.03,95
54.06,109
54.09,108
54.12,114
54.15,104
54.18,114
54.21,122
54.24,118
54.27,115
54.3,116
54.33,122
54.36,123
54.39,139
54.42,127
54.45,156
54.48,115
54.51,169
54.54,168
54.57,194
54.6,224
54.63,242
54.66,238
54.69,247
54.72,239
54.75,239
54.78,199
54.81,216
54.84,192
54.87,164
54.9,176
54.93,174
54.96,179
54.99,137
55.02,147
55.05,134
55.08,148
55.11,131
55.14,120
55.17,153
55.2,136
55.23,121
55.26,141
55.29,133
55.32,169
55.35,150
55.38,164
55.41,185
55.44,198
55.47,214
55.5,229
55.53,252
55.56,304
55.59,317
55.62,319
55.65,340
55.68,303
55.71,266
55.74,271
55.77,263
55.8,234
55.83,210
55.86,178
55.89,209
55.92,171
55.95,202
55.98,163
56.01,195
56.04,193
56.07,228
56.1,245
56.13,250
56.16,281
56.19,267
56.22,284
56.25,257
56.28,230
56.31,236
56.34,204
56.37,168
56.4,172
56.43,126
56.46,135
56.49,102
56.52,94
56.55,95
56.58,91
56.61,65
56.64,76
56.67,56
56.7,76
56.73,64
56.76,72
56.79,55
56.82,57
56.85,59
56.88,55
56.91,48
56.94,54
56.97,51
57,51
57.03,66
57.06,65
57.09,63
57.12,83
57.15,102
57.18,121
57.21,108
57.24,130
57.27,87
57.3,95
57.33,101
57.36,94
57.39,83
57.42,78
57.45,73
57.48,69
57.51,43
57.54,58
57.57,46
57.6,52
57.63,62
57.66,68
57.69,55
57.72,53
57.75,59
57.78,55
57.81,57
57.84,59
57.87,49
57.9,67
57.93,48
57.96,64
57.99,42
58.02,42
58.05,59
58.08,51
58.11,68
58.14,50
58.17,37
58.2,68
58.23,46
58.26,55
58.29,50
58.32,52
58.35,58
58.38,61
58.41,45
58.44,58
58.47,47
58.5,48
58.53,46
58.56,47
58.59,55
58.62,43
58.65,52
58.68,59
58.71,46
58.74,50
58.77,50
58.8,60
58.83,65
58.86,82
58.89,86
58.92,100
58.95,127
58.98,170
59.01,158
59.04,170
59.07,147
59.1,127
59.13,125
59.16,120
59.19,118
59.22,104
59.25,93
59.28,66
59.31,88
59.34,72
59.37,58
59.4,60
59.43,61
59.46,65
59.49,59
59.52,52
59.55,53
59.58,62
59.61,85
59.64,77
59.67,86
59.7,83
59.73,81
59.76,75
59.79,77
59.82,84
59.85,81
59.88,63
59.91,86
59.94,69
59.97,66
60,64
60.03,56
60.06,70
60.09,57
60.12,73
60.15,64
60.18,56
60.21,71
60.24,54
60.27,73
60.3,64
60.33,50
60.36,86
60.39,99
60.42,95
60.45,107
60.48,132
60.51,148
60.54,118
60.57,124
60.6,149
60.63,160
60.66,154
60.69,188
60.72,270
60.75,287
60.78,361
60.81,275
60.84,255
60.87,273
60.9,260
60.93,280
60.96,230
60.99,283
61.02,254
61.05,225
61.08,211
61.11,207
61.14,186
61.17,195
61.2,178
61.23,139
61.26,172
61.29,133
61.32,153
61.35,132
61.38,144
61.41,158
61.44,130
61.47,125
61.5,95
61.53,122
61.56,90
61.59,100
61.62,99
61.65,100
61.68,94
61.71,104
61.74,98
61.77,91
61.8,91
61.83,103
61.86,99
61.89,119
61.92,111
61.95,92
61.98,104
62.01,106
62.04,106
62.07,95
62.1,94
62.13,111
62.16,97
62.19,93
62.22,67
62.25,104
62.28,103
62.31,101
62.34,107
62.37,112
62.4,105
62.43,102
62.46,106
62.49,121
62.52,110
62.55,99
62.58,101
62.61,93
62.64,87
62.67,81
62.7,74
62.73,69
62.76,55
62.79,65
62.82,62
62.85,52
62.88,50
62.91,61
62.94,68
62.97,58
63,38
63.03,39
63.06,46
63.09,72
63.12,53
63.15,59
63.18,41
63.21,50
63.24,47
63.27,58
63.3,52
63.33,43
63.36,48
63.39,52
63.42,33
63.45,44
63.48,32
63.51,51
63.54,40
63.57,46
63.6,35
63.63,38
63.66,33
63.69,55
63.72,31
63.75,52
63.78,51
63.81,40
63.84,44
63.87,32
63.9,39
63.93,46
63.96,52
63.99,34
64.02,40
64.05,36
64.08,57
64.11,47
64.14,37
64.17,49
64.2,49
64.23,46
64.26,37
64.29,40
64.32,47
64.35,53
64.38,40
64.41,50
64.44,56
64.47,62
64.5,101
64.53,70
64.56,68
64.59,63
64.62,64
64.65,60
64.68,43
64.71,64
64.74,41
64.77,43
64.8,54
64.83,61
64.86,46
64.89,54
64.92,40
64.95,38
64.98,47
65.01,31
65.04,33
65.07,36
65.1,36
65.13,51
65.16,34
65.19,43
65.22,48
65.25,49
65.28,40
65.31,32
65.34,34
65.37,33
65.4,41
65.43,38
65.46,46
65.49,36
65.52,42
65.55,36
65.58,65
65.61,50
65.64,45
65.67,31
65.7,45
65.73,36
65.76,52
65.79,42
65.82,44
65.85,53
65.88,31
65.91,38
65.94,45
65.97,40
66,37
66.03,46
66.06,32
66.09,46
66.12,37
66.15,44
66.18,51
66.21,45
66.24,56
66.27,50
66.3,48
66.33,45
66.36,50
66.39,49
66.42,47
66.45,37
66.48,32
66.51,38
66.54,46
66.57,33
66.6,34
66.63,33
66.66,52
66.69,37
66.72,37
66.75,49
66.78,42
66.81,35
66.84,51
66.87,34
66.9,45
66.93,36
66.96,50
66.99,42
67.02,48
67.05,41
67.08,46
67.11,48
67.14,42
67.17,53
67.2,55
67.23,61
67.26,47
67.29,46
67.32,48
67.35,40
67.38,48
67.41,37
67.44,59
67.47,56
67.5,50
67.53,55
67.56,40
67.59,52
67.62,57
67.65,67
67.68,54
67.71,64
67.74,47
67.77,57
67.8,68
67.83,76
67.86,74
67.89,106
67.92,113
67.95,141
67.98,187
68.01,232
68.04,283
68.07,283
68.1,296
68.13,272
68.16,245
68.19,256
68.22,240
68.25,245
68.28,245
68.31,183
68.34,189
68.37,193
68.4,171
68.43,178
68.46,173
68.49,176
68.52,249
68.55,185
68.58,214
68.61,191
68.64,159
68.67,158
68.7,152
68.73,140
68.76,152
68.79,133
68.82,96
68.85,99
68.88,89
68.91,89
68.94,78
68.97,71
69,71
69.03,62
69.06,82
69.09,72
69.12,80
69.15,70
69.18,72
69.21,75
69.24,76
69.27,76
69.3,93
69.33,79
69.36,79
69.39,124
69.42,111
69.45,126
69.48,153
69.51,176
69.54,204
69.57,176
69.6,197
69.63,187
69.66,208
69.69,189
69.72,199
69.75,170
69.78,183
69.81,152
69.84,149
69.87,147
