Bragg_angle,Intensity
\circ,a.u.
5,258
5.03,274
5.06,286
5.09,262
5.12,276
5.15,287
5.18,277
5.21,283
5.24,307
5.27,293
5.3,267
5.33,269
5.36,280
5.39,290
5.42,264
5.45,252
5.48,257
5.51,276
5.54,250
5.57,224
5.6,244
5.63,240
5.66,224
5.69,262
5.72,229
5.75,229
5.78,221
5.81,215
5.84,223
5.87,194
5.9,222
5.93,242
5.96,201
5.99,213
6.02,202
6.05,246
6.08,222
6.11,183
6.14,210
6.17,214
6.2,195
6.23,227
6.26,227
6.29,203
6.32,232
6.35,208
6.38,227
6.41,183
6.44,226
6.47,193
6.5,199
6.53,235
6.56,208
6.59,209
6.62,218
6.65,198
6.68,226
6.71,197
6.74,176
6.77,206
6.8,214
6.83,178
6.86,188
6.89,195
6.92,195
6.95,178
6.98,191
7.01,178
7.04,164
7.07,206
7.1,180
7.13,181
7.16,199
7.19,202
7.22,197
7.25,188
7.28,168
7.31,179
7.34,198
7.37,186
7.4,203
7.43,207
7.46,198
7.49,200
7.52,176
7.55,188
7.58,218
7.61,199
7.64,182
7.67,195
7.7,202
7.73,210
7.76,210
7.79,189
7.82,202
7.85,199
7.88,186
7.91,190
7.94,210
7.97,197
8,196
8.03,180
8.06,199
8.09,176
8.12,168
8.15,190
8.18,174
8.21,171
8.24,184
8.27,170
8.3,186
8.33,184
8.36,193
8.39,184
8.42,181
8.45,163
8.48,167
8.51,198
8.54,185
8.57,170
8.6,167
8.63,167
8.66,188
8.69,194
8.72,194
8.75,190
8.78,190
8.81,198
8.84,196
8.87,209
8.9,219
8.93,212
8.96,218
8.99,202
9.02,238
9.05,223
9.08,265
9.11,232
9.14,240
9.17,279
9.2,248
9.23,276
9.26,268
9.29,260
9.32,268
9.35,302
9.38,286
9.41,303
9.44,307
9.47,321
9.5,294
9.53,301
9.56,342
9.59,332
9.62,311
9.65,299
9.68,307
9.71,316
9.74,287
9.77,340
9.8,324
9.83,313
9.86,319
9.89,276
9.92,318
9.95,295
9.98,297
10.01,294
10.04,280
10.07,284
10.1,300
10.13,266
10.16,301
10.19,292
10.22,301
10.25,272
10.28,264
10.31,238
10.34,241
10.37,258
10.4,247
10.43,216
10.46,220
10.49,241
10.52,211
10.55,182
10.58,180
10.61,155
10.64,183
10.67,140
10.7,174
10.73,151
10.76,165
10.79,156
10.82,153
10.85,153
10.88,147
10.91,147
10.94,153
10.97,150
11,150
11.03,143
11.06,135
11.09,144
11.12,161
11.15,133
11.18,128
11.21,138
11.24,137
11.27,136
11.3,109
11.33,156
11.36,135
11.39,141
11.42,150
11.45,131
11.48,132
11.51,147
11.54,139
11.57,147
11.6,155
11.63,141
11.66,149
11.69,157
11.72,136
11.75,131
11.78,137
11.81,129
11.84,131
11.87,129
11.9,152
11.93,165
11.96,165
11.99,128
12.02,138
12.05,152
12.08,148
12.11,155
12.14,136
12.17,136
12.2,140
12.23,152
12.26,129
12.29,138
12.32,140
12.35,142
12.38,140
12.41,142
12.44,124
12.47,147
12.5,140
12.53,147
12.56,168
12.59,156
12.62,126
12.65,141
12.68,144
12.71,154
12.74,165
12.77,136
12.8,134
12.83,133
12.86,130
12.89,137
12.92,151
12.95,134
12.98,144
13.01,135
13.04,127
13.07,129
13.1,148
13.13,150
13.16,127
13.19,126
13.22,136
13.25,133
13.28,161
13.31,146
13.34,126
13.37,133
13.4,119
13.43,134
13.46,143
13.49,132
13.52,148
13.55,136
13.58,131
13.61,118
13.64,130
13.67,137
13.7,143
13.73,125
13.76,133
13.79,136
13.82,141
13.85,131
13.88,118
13.91,144
13.94,138
13.97,147
14,116
14.03,134
14.06,143
14.09,127
14.12,117
14.15,121
14.18,127
14.21,128
14.24,135
14.27,136
14.3,138
14.33,111
14.36,116
14.39,125
14.42,128
14.45,139
14.48,116
14.51,119
14.54,110
14.57,157
14.6,134
14.63,151
14.66,120
14.69,116
14.72,131
14.75,125
14.78,136
14.81,123
14.84,144
14.87,130
14.9,120
14.93,130
14.96,142
14.99,146
15.02,146
15.05,116
15.08,145
15.11,131
15.14,127
15.17,123
15.2,114
15.23,101
15.26,122
15.29,130
15.32,130
15.35,130
15.38,125
15.41,110
15.44,137
15.47,152
15.5,122
15.53,142
15.56,101
15.59,144
15.62,124
15.65,107
15.68,100
15.71,106
15.74,141
15.77,126
15.8,123
15.83,107
15.86,109
15.89,119
15.92,117
15.95,120
15.98,112
16.01,111
16.04,112
16.07,129
16.1,112
16.13,94
16.16,98
16.19,97
16.22,87
16.25,121
16.28,118
16.31,97
16.34,110
16.37,122
16.4,101
16.43,91
16.46,100
16.49,101
16.52,108
16.55,113
16.58,98
16.61,106
16.64,87
16.67,103
16.7,111
16.73,102
16.76,104
16.79,118
16.82,91
16.85,116
16.88,100
16.91,122
16.94,105
16.97,103
17,101
17.03,98
17.06,95
17.09,114
17.12,105
17.15,105
17.18,96
17.21,93
17.24,101
17.27,101
17.3,107
17.33,86
17.36,101
17.39,89
17.42,117
17.45,87
17.48,92
17.51,98
17.54,91
17.57,116
17.6,98
17.63,112
17.66,94
17.69,97
17.72,96
17.75,91
17.78,94
17.81,87
17.84,84
17.87,79
17.9,90
17.93,86
17.96,105
17.99,100
18.02,76
18.05,87
18.08,67
18.11,107
18.14,83
18.17,96
18.2,94
18.23,88
18.26,78
18.29,88
18.32,95
18.35,100
18.38,97
18.41,106
18.44,90
18.47,102
18.5,110
18.53,82
18.56,107
18.59,86
18.62,91
18.65,96
18.68,103
18.71,103
18.74,92
18.77,88
18.8,99
18.83,100
18.86,91
18.89,96
18.92,92
18.95,91
18.98,99
19.01,99
19.04,106
19.07,101
19.1,103
19.13,110
19.16,125
19.19,121
19.22,107
19.25,123
19.28,146
19.31,140
19.34,172
19.37,209
19.4,267
19.43,334
19.46,393
19.49,531
19.52,562
19.55,488
19.58,396
19.61,328
19.64,263
19.67,246
19.7,236
19.73,217
19.76,223
19.79,192
19.82,218
19.85,208
19.88,210
19.91,215
19.94,228
19.97,249
20,197
20.03,200
20.06,153
20.09,126
20.12,115
20.15,109
20.18,113
20.21,105
20.24,104
20.27,101
20.3,87
20.33,103
20.36,97
20.39,91
20.42,86
20.45,91
20.48,110
20.51,89
20.54,88
20.57,81
20.6,71
20.63,89
20.66,90
20.69,85
20.72,89
20.75,89
20.78,82
20.81,87
20.84,107
20.87,87
20.9,101
20.93,84
20.96,89
20.99,71
21.02,80
21.05,80
21.08,72
21.11,82
21.14,80
21.17,69
21.2,71
21.23,87
21.26,85
21.29,70
21.32,84
21.35,89
21.38,90
21.41,79
21.44,77
21.47,77
21.5,90
21.53,96
21.56,110
21.59,102
21.62,118
21.65,130
21.68,122
21.71,115
21.74,102
21.77,104
21.8,108
21.83,94
21.86,88
21.89,99
21.92,100
21.95,98
21.98,97
22.01,87
22.04,93
22.07,86
22.1,79
22.13,71
22.16,86
22.19,89
22.22,83
22.25,69
22.28,77
22.31,77
22.34,62
22.37,86
22.4,82
22.43,103
22.46,78
22.49,83
22.52,82
22.55,79
22.58,69
22.61,68
22.64,85
22.67,93
22.7,92
22.73,95
22.76,86
22.79,94
22.82,88
22.85,82
22.88,84
22.91,98
22.94,87
22.97,107
23,104
23.03,135
23.06,176
23.09,225
23.12,254
23.15,227
23.18,199
23.21,146
23.24,143
23.27,103
23.3,131
23.33,120
23.36,120
23.39,120
23.42,133
23.45,130
23.48,145
23.51,137
23.54,174
23.57,184
23.6,203
23.63,233
23.66,299
23.69,332
23.72,417
23.75,524
23.78,671
23.81,922
23.84,1265
23.87,1791
23.9,2462
23.93,3411
23.96,4075
23.99,4392
24.02,3818
24.05,3041
24.08,2361
24.11,1898
24.14,1648
24.17,1560
24.2,1499
24.23,1539
24.26,1577
24.29,1628
24.32,1659
24.35,1598
24.38,1477
24.41,1133
24.44,822
24.47,622
24.5,426
24.53,330
24.56,260
24.59,215
24.62,183
24.65,168
24.68,174
24.71,146
24.74,127
24.77,135
24.8,148
24.83,109
24.86,117
24.89,95
24.92,91
24.95,120
24.98,111
25.01,110
25.04,97
25.07,118
25.1,118
25.13,112
25.16,103
25.19,96
25.22,89
25.25,84
25.28,99
25.31,120
25.34,98
25.37,86
25.4,84
25.43,97
25.46,102
25.49,85
25.52,94
25.55,83
25.58,91
25.61,88
25.64,87
25.67,68
25.7,77
25.73,88
25.76,89
25.79,67
25.82,73
25.85,89
25.88,79
25.91,91
25.94,90
25.97,89
26,94
26.03,85
26.06,81
26.09,72
26.12,80
26.15,79
26.18,80
26.21,79
26.24,73
26.27,74
26.3,95
26.33,84
26.36,77
26.39,80
26.42,90
26.45,86
26.48,77
26.51,103
26.54,82
26.57,112
26.6,95
26.63,82
26.66,67
26.69,57
26.72,93
26.75,76
26.78,74
26.81,80
26.84,90
26.87,86
26.9,88
26.93,76
26.96,82
26.99,83
27.02,75
27.05,85
27.08,73
27.11,82
27.14,85
27.17,73
27.2,72
27.23,68
27.26,87
27.29,87
27.32,66
27.35,67
27.38,63
27.41,82
27.44,69
27.47,84
27.5,85
27.53,96
27.56,97
27.59,128
27.62,134
27.65,192
27.68,193
27.71,309
27.74,417
27.77,553
27.8,644
27.83,554
27.86,478
27.89,277
27.92,184
27.95,110
27.98,95
28.01,85
28.04,83
28.07,89
28.1,84
28.13,74
28.16,74
28.19,71
28.22,72
28.25,85
28.28,52
28.31,73
28.34,63
28.37,67
28.4,74
28.43,78
28.46,77
28.49,80
28.52,84
28.55,85
28.58,94
28.61,72
28.64,88
28.67,69
28.7,70
28.73,69
28.76,68
28.79,79
28.82,79
28.85,74
28.88,78
28.91,67
28.94,72
28.97,82
29,82
29.03,89
29.06,91
29.09,91
29.12,93
29.15,116
29.18,121
29.21,140
29.24,174
29.27,227
29.3,262
29.33,374
29.36,530
29.39,805
29.42,1363
29.45,1961
29.48,2200
29.51,1939
29.54,1364
29.57,937
29.6,551
29.63,285
29.66,238
29.69,196
29.72,183
29.75,116
29.78,116
29.81,96
29.84,86
29.87,92
29.9,82
29.93,94
29.96,91
29.99,78
30.02,86
30.05,61
30.08,89
30.11,80
30.14,87
30.17,75
30.2,77
30.23,74
30.26,79
30.29,75
30.32,57
30.35,67
30.38,80
30.41,78
30.44,83
30.47,78
30.5,79
30.53,71
30.56,71
30.59,70
30.62,79
30.65,73
30.68,81
30.71,73
30.74,65
30.77,78
30.8,70
30.83,77
30.86,77
30.89,70
30.92,56
30.95,76
30.98,51
31.01,70
31.04,79
31.07,63
31.1,59
31.13,73
31.16,90
31.19,75
31.22,73
31.25,76
31.28,82
31.31,68
31.34,59
31.37,71
31.4,82
31.43,111
31.46,101
31.49,106
31.52,91
31.55,109
31.58,95
31.61,94
31.64,61
31.67,72
31.7,64
31.73,67
31.76,55
31.79,63
31.82,59
31.85,54
31.88,54
31.91,71
31.94,68
31.97,60
32,69
32.03,51
32.06,67
32.09,87
32.12,53
32.15,62
32.18,65
32.21,76
32.24,96
32.27,64
32.3,68
32.33,78
32.36,103
32.39,88
32.42,96
32.45,91
32.48,91
32.51,93
32.54,90
32.57,125
32.6,101
32.63,92
32.66,108
32.69,95
32.72,112
32.75,94
32.78,96
32.81,89
32.84,68
32.87,80
32.9,78
32.93,70
32.96,88
32.99,78
33.02,86
33.05,75
33.08,66
33.11,87
33.14,88
33.17,80
33.2,92
33.23,89
33.26,96
33.29,87
33.32,88
33.35,121
33.38,111
33.41,99
33.44,107
33.47,107
33.5,113
33.53,119
33.56,156
33.59,160
33.62,174
33.65,217
33.68,213
33.71,290
33.74,324
33.77,383
33.8,426
33.83,450
33.86,489
33.89,463
33.92,466
33.95,456
33.98,446
34.01,445
34.04,557
34.07,632
34.1,765
34.13,895
34.16,1081
34.19,1001
34.22,958
34.25,913
34.28,785
34.31,736
34.34,676
34.37,685
34.4,728
34.43,719
34.46,735
34.49,742
34.52,787
34.55,878
34.58,904
34.61,1028
34.64,1020
34.67,972
34.7,870
34.73,752
34.76,518
34.79,431
34.82,317
34.85,250
34.88,180
34.91,146
34.94,123
34.97,135
35,111
35.03,110
35.06,90
35.09,87
35.12,80
35.15,79
35.18,80
35.21,81
35.24,84
35.27,78
35.3,78
35.33,61
35.36,68
35.39,67
35.42,64
35.45,60
35.48,54
35.51,69
35.54,64
35.57,69
35.6,64
35.63,61
35.66,58
35.69,63
35.72,84
35.75,62
35.78,66
35.81,68
35.84,70
35.87,69
35.9,104
35.93,127
35.96,139
35.99,224
36.02,288
36.05,319
36.08,245
36.11,193
36.14,196
36.17,117
36.2,88
36.23,77
36.26,67
36.29,57
36.32,73
36.35,62
36.38,67
36.41,55
36.44,66
36.47,60
36.5,58
36.53,54
36.56,64
36.59,64
36.62,56
36.65,50
36.68,54
36.71,58
36.74,50
36.77,64
36.8,61
36.83,64
36.86,60
36.89,65
36.92,58
36.95,63
36.98,54
37.01,68
37.04,51
37.07,49
37.1,60
37.13,56
37.16,61
37.19,53
37.22,53
37.25,66
37.28,65
37.31,54
37.34,47
37.37,56
37.4,53
37.43,48
37.46,52
37.49,51
37.52,63
37.55,62
37.58,57
37.61,55
37.64,60
37.67,61
37.7,53
37.73,72
37.76,63
37.79,64
37.82,78
37.85,87
37.88,65
37.91,67
37.94,84
37.97,64
38,73
38.03,75
38.06,78
38.09,79
38.12,68
38.15,67
38.18,57
38.21,56
38.24,51
38.27,59
38.3,68
38.33,61
38.36,64
38.39,78
38.42,58
38.45,59
38.48,64
38.51,52
38.54,53
38.57,61
38.6,65
38.63,71
38.66,68
38.69,49
38.72,59
38.75,65
38.78,60
38.81,63
38.84,54
38.87,64
38.9,69
38.93,73
38.96,43
38.99,57
39.02,66
39.05,55
39.08,83
39.11,59
39.14,72
39.17,70
39.2,62
39.23,90
39.26,76
39.29,101
39.32,119
39.35,157
39.38,196
39.41,290
39.44,459
39.47,551
39.5,601
39.53,588
39.56,546
39.59,461
39.62,416
39.65,288
39.68,197
39.71,195
39.74,146
39.77,141
39.8,104
39.83,111
39.86,112
39.89,80
39.92,88
39.95,74
39.98,99
40.01,80
40.04,82
40.07,75
40.1,76
40.13,82
40.16,82
40.19,84
40.22,96
40.25,82
40.28,79
40.31,70
40.34,96
40.37,95
40.4,105
40.43,127
40.46,117
40.49,124
40.52,127
40.55,126
40.58,119
40.61,131
40.64,76
40.67,106
40.7,88
40.73,94
40.76,75
40.79,71
40.82,72
40.85,61
40.88,70
40.91,58
40.94,67
40.97,80
41,64
41.03,64
41.06,64
41.09,63
41.12,77
41.15,59
41.18,72
41.21,85
41.24,58
41.27,62
41.3,57
41.33,64
41.36,58
41.39,65
41.42,65
41.45,75
41.48,84
41.51,77
41.54,79
41.57,70
41.6,79
41.63,85
41.66,85
41.69,102
41.72,87
41.75,121
41.78,130
41.81,155
41.84,188
41.87,248
41.9,296
41.93,370
41.96,498
41.99,735
42.02,911
42.05,1084
42.08,1069
42.11,1020
42.14,951
42.17,869
42.2,747
42.23,598
42.26,449
42.29,359
42.32,308
42.35,285
42.38,234
42.41,221
42.44,192
42.47,199
42.5,213
42.53,185
42.56,197
42.59,188
42.62,174
42.65,162
42.68,197
42.71,189
42.74,188
42.77,245
42.8,212
42.83,269
42.86,280
42.89,325
42.92,343
42.95,357
42.98,424
43.01,411
43.04,396
43.07,380
43.1,381
43.13,358
43.16,450
43.19,564
43.22,593
43.25,506
43.28,394
43.31,351
43.34,312
43.37,264
43.4,158
43.43,101
43.46,96
43.49,87
43.52,84
43.55,95
43.58,77
43.61,80
43.64,77
43.67,80
43.7,85
43.73,62
43.76,79
43.79,75
43.82,79
43.85,70
43.88,92
43.91,83
43.94,103
43.97,104
44,101
44.03,112
44.06,113
44.09,140
44.12,139
44.15,200
44.18,211
44.21,233
44.24,275
44.27,315
44.3,331
44.33,352
44.36,313
44.39,352
44.42,349
44.45,312
44.48,280
44.51,247
44.54,262
44.57,253
44.6,268
44.63,268
44.66,261
44.69,261
44.72,326
44.75,349
44.78,375
44.81,423
44.84,557
44.87,574
44.9,698
44.93,790
44.96,792
44.99,723
45.02,616
45.05,483
45.08,450
45.11,322
45.14,237
45.17,180
45.2,150
45.23,122
45.26,115
45.29,127
45.32,108
45.35,84
45.38,93
45.41,78
45.44,65
45.47,71
45.5,69
45.53,70
45.56,61
45.59,76
45.62,78
45.65,69
45.68,68
45.71,68
45.74,63
45.77,67
45.8,73
45.83,62
45.86,58
45.89,54
45.92,53
45.95,54
45.98,66
46.01,70
46.04,62
46.07,63
46.1,65
46.13,46
46.16,64
46.19,52
46.22,72
46.25,68
46.28,69
46.31,70
46.34,64
46.37,77
46.4,68
46.43,65
46.46,68
46.49,72
46.52,69
46.55,74
46.58,102
46.61,102
46.64,120
46.67,126
46.7,146
46.73,227
46.76,292
46.79,399
46.82,501
46.85,662
46.88,726
46.91,646
46.94,578
46.97,604
47,628
47.03,555
47.06,507
47.09,437
47.12,417
47.15,384
47.18,401
47.21,297
47.24,230
47.27,189
47.3,179
47.33,156
47.36,117
47.39,102
47.42,112
47.45,146
47.48,201
47.51,334
47.54,502
47.57,489
47.6,378
47.63,289
47.66,275
47.69,281
47.72,227
47.75,129
47.78,94
47.81,73
47.84,72
47.87,75
47.9,47
47.93,62
47.96,62
47.99,60
48.02,67
48.05,65
48.08,69
48.11,66
48.14,56
48.17,76
48.2,81
48.23,70
48.26,70
48.29,68
48.32,75
48.35,67
48.38,76
48.41,81
48.44,111
48.47,153
48.5,238
48.53,411
48.56,480
48.59,411
48.62,289
48.65,275
48.68,292
48.71,260
48.74,185
48.77,102
48.8,75
48.83,89
48.86,105
48.89,94
48.92,132
48.95,170
48.98,157
49.01,167
49.04,149
49.07,146
49.1,147
49.13,126
49.16,102
49.19,103
49.22,94
49.25,79
49.28,76
49.31,70
49.34,56
49.37,59
49.4,52
49.43,79
49.46,74
49.49,65
49.52,74
49.55,82
49.58,70
49.61,63
49.64,65
49.67,63
49.7,74
49.73,84
49.76,99
49.79,90
49.82,97
49.85,91
49.88,101
49.91,92
49.94,80
49.97,81
50,73
50.03,75
50.06,62
50.09,64
50.12,61
50.15,60
50.18,46
50.21,55
50.24,51
50.27,55
50.3,55
50.33,46
50.36,51
50.39,53
50.42,56
50.45,41
50.48,63
50.51,46
50.54,49
50.57,44
50.6,42
50.63,51
50.66,46
50.69,41
50.72,43
50.75,49
50.78,47
50.81,48
50.84,45
50.87,57
50.9,40
50.93,45
50.96,47
50.99,58
51.02,45
51.05,49
51.08,30
51.11,44
51.14,37
51.17,41
51.2,41
51.23,39
51.26,52
51.29,39
51.32,52
51.35,43
51.38,43
51.41,47
51.44,42
51.47,67
51.5,42
51.53,41
51.56,43
51.59,34
51.62,51
51.65,37
51.68,52
51.71,41
51.74,39
51.77,48
51.8,43
51.83,36
51.86,45
51.89,37
51.92,41
51.95,52
51.98,41
52.01,59
52.04,44
52.07,49
52.1,42
52.13,30
52.16,58
52.19,49
52.22,45
52.25,47
52.28,45
52.31,46
52.34,39
52.37,44
52.4,47
52.43,38
52.46,45
52.49,56
52.52,55
52.55,63
52.58,60
52.61,65
52.64,64
52.67,82
52.7,80
52.73,90
52.76,83
52.79,103
52.82,80
52.85,74
52.88,80
52.91,69
52.94,72
52.97,68
53,76
53.03,81
53.06,65
53.09,74
53.12,63
53.15,56
53.18,61
53.21,65
53.24,71
53.27,51
53.3,60
53.33,62
53.36,84
53.39,61
53.42,67
53.45,68
53.48,66
53.51,85
53.54,75
53.57,92
53.6,86
53.63,89
53.66,88
53.69,97
53.72,108
53.75,90
53.78,87
53.81,90
53.84,105
53.87,78
53.9,84
53.93,82
53.96,78
53.99,53
54.02,60
54.05,84
54.08,94
54.11,80
54.14,76
54.17,68
54.2,79
54.23,88
54.26,82
54.29,96
54.32,91
54.35,81
54.38,85
54.41,85
54.44,106
54.47,74
54.5,101
54.53,101
54.56,99
54.59,110
54.62,122
54.65,139
54.68,144
54.71,182
54.74,179
54.77,192
54.8,220
54.83,202
54.86,181
54.89,200
54.92,214
54.95,183
54.98,184
55.01,146
55.04,155
55.07,154
55.1,122
55.13,135
55.16,110
55.19,139
55.22,120
55.25,115
55.28,122
55.31,109
55.34,113
55.37,127
55.4,128
55.43,127
55.46,128
55.49,160
55.52,131
55.55,159
55.58,149
55.61,174
55.64,200
55.67,227
55.7,267
55.73,266
55.76,277
55.79,263
55.82,234
55.85,225
55.88,211
55.91,200
55.94,199
55.97,162
56,173
56.03,159
56.06,159
56.09,143
56.12,154
56.15,158
56.18,194
56.21,215
56.24,179
56.27,209
56.3,196
56.33,248
56.36,218
56.39,211
56.42,193
56.45,187
56.48,169
56.51,164
56.54,133
56.57,153
56.6,145
56.63,153
56.66,128
56.69,99
56.72,83
56.75,91
56.78,79
56.81,91
56.84,78
56.87,48
56.9,62
56.93,57
56.96,52
56.99,52
57.02,49
57.05,50
57.08,55
57.11,58
57.14,56
57.17,60
57.2,73
57.23,66
57.26,77
57.29,115
57.32,115
57.35,135
57.38,120
57.41,208
57.44,273
57.47,272
57.5,236
57.53,145
57.56,135
57.59,118
57.62,154
57.65,140
57.68,88
57.71,67
57.74,46
57.77,57
57.8,57
57.83,50
57.86,54
57.89,63
57.92,55
57.95,55
57.98,49
58.01,39
58.04,61
58.07,59
58.1,67
58.13,64
58.16,84
58.19,47
58.22,53
58.25,52
58.28,70
58.31,62
58.34,59
58.37,53
58.4,63
58.43,61
58.46,50
58.49,55
58.52,61
58.55,42
58.58,47
58.61,47
58.64,45
58.67,51
58.7,60
58.73,48
58.76,59
58.79,58
58.82,50
58.85,55
58.88,51
58.91,59
58.94,62
58.97,43
59,82
59.03,81
59.06,72
59.09,114
59.12,137
59.15,156
59.18,144
59.21,116
59.24,122
59.27,139
59.3,131
59.33,106
59.36,116
59.39,102
59.42,84
59.45,78
59.48,71
59.51,77
59.54,53
59.57,69
59.6,69
59.63,76
59.66,64
59.69,77
59.72,64
59.75,67
59.78,70
59.81,78
59.84,82
59.87,92
59.9,83
59.93,92
59.96,75
59.99,83
60.02,79
60.05,79
60.08,63
60.11,62
60.14,57
60.17,59
60.2,52
60.23,53
60.26,57
60.29,57
60.32,55
60.35,45
60.38,64
60.41,50
60.44,63
60.47,61
60.5,98
60.53,72
60.56,97
60.59,108
60.62,121
60.65,118
60.68,159
60.71,210
60.74,182
60.77,178
60.8,157
60.83,189
60.86,223
60.89,240
60.92,242
60.95,247
60.98,228
61.01,235
61.04,250
61.07,281
61.1,274
61.13,246
61.16,222
61.19,209
61.22,219
61.25,206
61.28,188
61.31,181
61.34,181
61.37,165
61.4,202
61.43,163
61.46,198
61.49,146
61.52,141
61.55,148
61.58,159
61.61,140
61.64,125
61.67,103
61.7,103
61.73,91
61.76,89
61.79,92
61.82,84
61.85,83
61.88,79
61.91,67
61.94,97
61.97,75
62,100
62.03,100
62.06,107
62.09,98
62.12,105
62.15,88
62.18,94
62.21,73
62.24,69
62.27,85
62.3,82
62.33,79
62.36,71
62.39,88
62.42,80
62.45,79
62.48,67
62.51,83
62.54,73
62.57,88
62.6,87
62.63,83
62.66,79
62.69,87
62.72,83
62.75,58
62.78,72
62.81,81
62.84,56
62.87,61
62.9,44
62.93,72
62.96,54
62.99,60
63.02,67
63.05,61
63.08,82
63.11,79
63.14,78
63.17,66
63.2,59
63.23,51
63.26,53
63.29,65
63.32,45
63.35,48
63.38,44
63.41,38
63.44,35
63.47,38
63.5,37
63.53,45
63.56,46
63.59,41
63.62,47
63.65,41
63.68,32
63.71,34
63.74,50
63.77,38
63.8,23
63.83,36
63.86,42
63.89,48
63.92,37
63.95,49
63.98,43
64.01,33
64.04,44
64.07,22
64.1,38
64.13,43
64.16,43
64.19,42
64.22,44
64.25,37
64.28,43
64.31,35
64.34,36
64.37,49
64.4,39
64.43,50
64.46,37
64.49,38
64.52,37
64.55,44
64.58,48
64.61,59
64.64,72
64.67,129
64.7,164
64.73,173
64.76,128
64.79,99
64.82,59
64.85,91
64.88,95
64.91,99
64.94,95
64.97,71
65,48
65.03,54
65.06,47
65.09,31
65.12,33
65.15,26
65.18,38
65.21,39
65.24,43
65.27,41
65.3,34
65.33,33
65.36,37
65.39,50
65.42,31
65.45,40
65.48,33
65.51,47
65.54,57
65.57,59
65.6,83
65.63,116
65.66,156
65.69,104
65.72,75
65.75,59
65.78,64
65.81,89
65.84,83
65.87,67
65.9,69
65.93,46
65.96,39
65.99,37
66.02,31
66.05,40
66.08,41
66.11,29
66.14,34
66.17,37
66.2,46
66.23,33
66.26,45
66.29,35
66.32,46
66.35,36
66.38,47
66.41,41
66.44,37
66.47,41
66.5,30
66.53,44
66.56,31
66.59,44
66.62,40
66.65,39
66.68,32
66.71,32
66.74,31
66.77,43
66.8,37
66.83,41
66.86,37
66.89,41
66.92,40
66.95,40
66.98,29
67.01,41
67.04,40
67.07,40
67.1,42
67.13,46
67.16,41
67.19,47
67.22,38
67.25,42
67.28,43
67.31,49
67.34,50
67.37,33
67.4,44
67.43,48
67.46,36
67.49,33
67.52,47
67.55,57
67.58,34
67.61,46
67.64,45
67.67,44
67.7,40
67.73,51
67.76,41
67.79,49
67.82,46
67.85,47
67.88,63
67.91,70
67.94,69
67.97,65
68,108
68.03,90
68.06,115
68.09,159
68.12,169
68.15,201
68.18,216
68.21,237
68.24,257
68.27,243
68.3,232
68.33,225
68.36,205
68.39,223
68.42,203
68.45,221
68.48,182
68.51,201
68.54,181
68.57,161
68.6,198
68.63,207
68.66,214
68.69,226
68.72,190
68.75,177
68.78,181
68.81,150
68.84,153
68.87,146
68.9,141
68.93,106
68.96,107
68.99,88
69.02,87
69.05,94
69.08,76
69.11,60
69.14,75
69.17,82
69.2,84
69.23,91
69.26,87
69.29,89
69.32,92
69.35,89
69.38,91
69.41,84
69.44,97
69.47,109
69.5,82
69.53,101
69.56,135
69.59,141
69.62,152
69.65,159
69.68,157
69.71,174
69.74,170
69.77,204
69.8,191
69.83,183
69.86,177
69.89,146
69.92,153
69.95,135
69.98,128
70.01,148
,
