Bragg_angle,Intensity
\circ,a.u.
5,241
5.03,228
5.06,240
5.09,239
5.12,253
5.15,249
5.18,232
5.21,228
5.24,235
5.27,242
5.3,205
5.33,234
5.36,202
5.39,246
5.42,228
5.45,219
5.48,242
5.51,230
5.54,238
5.57,226
5.6,242
5.63,194
5.66,215
5.69,197
5.72,207
5.75,220
5.78,218
5.81,197
5.84,219
5.87,186
5.9,235
5.93,227
5.96,205
5.99,222
6.02,226
6.05,216
6.08,222
6.11,230
6.14,236
6.17,211
6.2,249
6.23,239
6.26,256
6.29,228
6.32,223
6.35,236
6.38,250
6.41,275
6.44,260
6.47,245
6.5,219
6.53,230
6.56,275
6.59,211
6.62,248
6.65,255
6.68,201
6.71,219
6.74,222
6.77,228
6.8,217
6.83,236
6.86,232
6.89,184
6.92,223
6.95,190
6.98,190
7.01,170
7.04,181
7.07,182
7.1,178
7.13,187
7.16,188
7.19,199
7.22,189
7.25,174
7.28,179
7.31,202
7.34,172
7.37,186
7.4,182
7.43,184
7.46,185
7.49,178
7.52,177
7.55,205
7.58,186
7.61,191
7.64,163
7.67,195
7.7,218
7.73,174
7.76,188
7.79,203
7.82,180
7.85,152
7.88,193
7.91,203
7.94,195
7.97,161
8,217
8.03,187
8.06,204
8.09,173
8.12,186
8.15,190
8.18,194
8.21,166
8.24,200
8.27,211
8.3,178
8.33,200
8.36,169
8.39,193
8.42,201
8.45,195
8.48,228
8.51,182
8.54,188
8.57,212
8.6,219
8.63,231
8.66,212
8.69,213
8.72,204
8.75,224
8.78,236
8.81,253
8.84,266
8.87,259
8.9,268
8.93,252
8.96,286
8.99,301
9.02,280
9.05,283
9.08,308
9.11,300
9.14,306
9.17,348
9.2,346
9.23,348
9.26,332
9.29,346
9.32,341
9.35,359
9.38,351
9.41,358
9.44,363
9.47,384
9.5,372
9.53,364
9.56,369
9.59,352
9.62,352
9.65,408
9.68,398
9.71,376
9.74,361
9.77,364
9.8,379
9.83,408
9.86,357
9.89,389
9.92,372
9.95,409
9.98,360
10.01,360
10.04,374
10.07,360
10.1,323
10.13,321
10.16,333
10.19,305
10.22,323
10.25,325
10.28,303
10.31,333
10.34,271
10.37,288
10.4,249
10.43,271
10.46,252
10.49,230
10.52,239
10.55,195
10.58,170
10.61,193
10.64,171
10.67,140
10.7,163
10.73,137
10.76,175
10.79,165
10.82,166
10.85,155
10.88,162
10.91,162
10.94,153
10.97,170
11,173
11.03,167
11.06,160
11.09,148
11.12,143
11.15,139
11.18,138
11.21,173
11.24,191
11.27,139
11.3,149
11.33,140
11.36,130
11.39,126
11.42,143
11.45,115
11.48,124
11.51,144
11.54,125
11.57,140
11.6,129
11.63,156
11.66,132
11.69,118
11.72,136
11.75,138
11.78,139
11.81,130
11.84,150
11.87,142
11.9,133
11.93,152
11.96,143
11.99,132
12.02,124
12.05,146
12.08,148
12.11,153
12.14,147
12.17,131
12.2,148
12.23,117
12.26,145
12.29,142
12.32,126
12.35,151
12.38,140
12.41,153
12.44,136
12.47,126
12.5,127
12.53,127
12.56,140
12.59,128
12.62,166
12.65,135
12.68,133
12.71,128
12.74,112
12.77,152
12.8,149
12.83,130
12.86,130
12.89,138
12.92,146
12.95,129
12.98,137
13.01,155
13.04,122
13.07,128
13.1,125
13.13,144
13.16,115
13.19,153
13.22,111
13.25,128
13.28,118
13.31,125
13.34,131
13.37,119
13.4,132
13.43,123
13.46,121
13.49,116
13.52,117
13.55,99
13.58,124
13.61,132
13.64,136
13.67,125
13.7,144
13.73,127
13.76,129
13.79,128
13.82,136
13.85,145
13.88,143
13.91,122
13.94,130
13.97,121
14,131
14.03,128
14.06,130
14.09,122
14.12,126
14.15,97
14.18,128
14.21,110
14.24,119
14.27,145
14.3,148
14.33,109
14.36,123
14.39,107
14.42,130
14.45,110
14.48,122
14.51,132
14.54,122
14.57,124
14.6,116
14.63,101
14.66,121
14.69,113
14.72,133
14.75,107
14.78,134
14.81,120
14.84,136
14.87,138
14.9,111
14.93,121
14.96,118
14.99,100
15.02,128
15.05,136
15.08,131
15.11,117
15.14,104
15.17,137
15.2,104
15.23,107
15.26,133
15.29,112
15.32,105
15.35,107
15.38,122
15.41,119
15.44,118
15.47,111
15.5,121
15.53,127
15.56,105
15.59,92
15.62,128
15.65,123
15.68,123
15.71,120
15.74,118
15.77,122
15.8,95
15.83,122
15.86,120
15.89,103
15.92,134
15.95,107
15.98,118
16.01,108
16.04,111
16.07,91
16.1,107
16.13,127
16.16,121
16.19,108
16.22,118
16.25,118
16.28,134
16.31,117
16.34,117
16.37,96
16.4,114
16.43,123
16.46,93
16.49,122
16.52,111
16.55,100
16.58,97
16.61,97
16.64,122
16.67,116
16.7,103
16.73,104
16.76,110
16.79,109
16.82,124
16.85,95
16.88,109
16.91,100
16.94,108
16.97,105
17,104
17.03,108
17.06,103
17.09,104
17.12,109
17.15,83
17.18,97
17.21,91
17.24,101
17.27,101
17.3,97
17.33,89
17.36,119
17.39,92
17.42,92
17.45,89
17.48,91
17.51,101
17.54,92
17.57,97
17.6,104
17.63,88
17.66,88
17.69,88
17.72,82
17.75,87
17.78,97
17.81,93
17.84,101
17.87,109
17.9,94
17.93,75
17.96,92
17.99,89
18.02,107
18.05,98
18.08,96
18.11,85
18.14,98
18.17,102
18.2,82
18.23,90
18.26,88
18.29,85
18.32,97
18.35,99
18.38,94
18.41,109
18.44,88
18.47,92
18.5,89
18.53,115
18.56,88
18.59,88
18.62,79
18.65,85
18.68,88
18.71,92
18.74,81
18.77,98
18.8,79
18.83,89
18.86,78
18.89,89
18.92,99
18.95,77
18.98,105
19.01,85
19.04,80
19.07,89
19.1,83
19.13,83
19.16,81
19.19,105
19.22,69
19.25,88
19.28,85
19.31,100
19.34,89
19.37,101
19.4,102
19.43,112
19.46,115
19.49,129
19.52,132
19.55,116
19.58,124
19.61,121
19.64,110
19.67,86
19.7,102
19.73,90
19.76,100
19.79,105
19.82,109
19.85,110
19.88,99
19.91,85
19.94,92
19.97,100
20,85
20.03,105
20.06,92
20.09,83
20.12,82
20.15,77
20.18,77
20.21,78
20.24,88
20.27,77
20.3,77
20.33,84
20.36,87
20.39,79
20.42,71
20.45,66
20.48,78
20.51,65
20.54,80
20.57,77
20.6,75
20.63,97
20.66,70
20.69,86
20.72,58
20.75,72
20.78,83
20.81,80
20.84,93
20.87,67
20.9,70
20.93,91
20.96,82
20.99,70
21.02,68
21.05,63
21.08,65
21.11,67
21.14,75
21.17,73
21.2,104
21.23,71
21.26,70
21.29,80
21.32,85
21.35,69
21.38,75
21.41,71
21.44,77
21.47,73
21.5,86
21.53,86
21.56,69
21.59,77
21.62,77
21.65,93
21.68,66
21.71,72
21.74,70
21.77,61
21.8,64
21.83,91
21.86,71
21.89,85
21.92,70
21.95,75
21.98,74
22.01,66
22.04,70
22.07,72
22.1,60
22.13,59
22.16,72
22.19,60
22.22,57
22.25,63
22.28,70
22.31,65
22.34,53
22.37,75
22.4,64
22.43,80
22.46,81
22.49,68
22.52,74
22.55,67
22.58,68
22.61,56
22.64,70
22.67,60
22.7,89
22.73,83
22.76,75
22.79,81
22.82,83
22.85,92
22.88,108
22.91,153
22.94,157
22.97,222
23,276
23.03,340
23.06,580
23.09,902
23.12,888
23.15,822
23.18,523
23.21,290
23.24,141
23.27,108
23.3,85
23.33,89
23.36,70
23.39,84
23.42,80
23.45,97
23.48,87
23.51,76
23.54,80
23.57,79
23.6,101
23.63,93
23.66,96
23.69,123
23.72,122
23.75,155
23.78,175
23.81,207
23.84,286
23.87,359
23.9,484
23.93,683
23.96,812
23.99,803
24.02,659
24.05,550
24.08,423
24.11,339
24.14,317
24.17,310
24.2,310
24.23,327
24.26,277
24.29,315
24.32,342
24.35,300
24.38,280
24.41,210
24.44,182
24.47,155
24.5,143
24.53,85
24.56,86
24.59,85
24.62,84
24.65,90
24.68,75
24.71,71
24.74,68
24.77,80
24.8,72
24.83,73
24.86,59
24.89,78
24.92,71
24.95,83
24.98,73
25.01,68
25.04,73
25.07,75
25.1,70
25.13,64
25.16,68
25.19,58
25.22,65
25.25,69
25.28,65
25.31,73
25.34,74
25.37,70
25.4,71
25.43,72
25.46,69
25.49,71
25.52,79
25.55,76
25.58,67
25.61,63
25.64,59
25.67,81
25.7,65
25.73,65
25.76,49
25.79,73
25.82,61
25.85,72
25.88,70
25.91,62
25.94,72
25.97,69
26,69
26.03,51
26.06,56
26.09,78
26.12,60
26.15,67
26.18,65
26.21,51
26.24,60
26.27,84
26.3,72
26.33,63
26.36,71
26.39,82
26.42,80
26.45,81
26.48,92
26.51,151
26.54,145
26.57,188
26.6,134
26.63,107
26.66,85
26.69,76
26.72,71
26.75,56
26.78,51
26.81,88
26.84,61
26.87,74
26.9,61
26.93,68
26.96,64
26.99,53
27.02,60
27.05,69
27.08,81
27.11,63
27.14,68
27.17,54
27.2,53
27.23,63
27.26,63
27.29,64
27.32,69
27.35,68
27.38,70
27.41,58
27.44,53
27.47,68
27.5,66
27.53,59
27.56,63
27.59,61
27.62,81
27.65,76
27.68,102
27.71,114
27.74,128
27.77,177
27.8,158
27.83,173
27.86,118
27.89,104
27.92,82
27.95,89
27.98,71
28.01,57
28.04,54
28.07,70
28.1,60
28.13,46
28.16,68
28.19,55
28.22,61
28.25,53
28.28,73
28.31,60
28.34,68
28.37,78
28.4,72
28.43,98
28.46,94
28.49,94
28.52,110
28.55,82
28.58,98
28.61,106
28.64,82
28.67,103
28.7,91
28.73,90
28.76,92
28.79,108
28.82,100
28.85,88
28.88,103
28.91,105
28.94,96
28.97,101
29,119
29.03,116
29.06,116
29.09,116
29.12,141
29.15,207
29.18,232
29.21,341
29.24,536
29.27,724
29.3,995
29.33,1477
29.36,2329
29.39,4222
29.42,7858
29.45,10722
29.48,10326
29.51,8185
29.54,4985
29.57,3416
29.6,1136
29.63,496
29.66,349
29.69,260
29.72,187
29.75,162
29.78,143
29.81,125
29.84,109
29.87,89
29.9,94
29.93,113
29.96,86
29.99,90
30.02,91
30.05,104
30.08,94
30.11,90
30.14,100
30.17,88
30.2,74
30.23,97
30.26,87
30.29,96
30.32,69
30.35,67
30.38,85
30.41,107
30.44,91
30.47,61
30.5,82
30.53,83
30.56,81
30.59,70
30.62,82
30.65,68
30.68,79
30.71,88
30.74,68
30.77,64
30.8,72
30.83,89
30.86,60
30.89,66
30.92,89
30.95,66
30.98,71
31.01,84
31.04,65
31.07,68
31.1,68
31.13,80
31.16,71
31.19,62
31.22,84
31.25,66
31.28,77
31.31,80
31.34,93
31.37,102
31.4,122
31.43,165
31.46,268
31.49,307
31.52,306
31.55,219
31.58,193
31.61,147
31.64,82
31.67,70
31.7,82
31.73,68
31.76,72
31.79,60
31.82,68
31.85,77
31.88,68
31.91,60
31.94,74
31.97,65
32,72
32.03,66
32.06,69
32.09,76
32.12,63
32.15,58
32.18,68
32.21,75
32.24,62
32.27,51
32.3,62
32.33,63
32.36,65
32.39,61
32.42,73
32.45,78
32.48,80
32.51,59
32.54,77
32.57,58
32.6,77
32.63,64
32.66,61
32.69,68
32.72,84
32.75,65
32.78,63
32.81,69
32.84,73
32.87,77
32.9,69
32.93,78
32.96,70
32.99,57
33.02,61
33.05,63
33.08,65
33.11,52
33.14,51
33.17,64
33.2,69
33.23,62
33.26,57
33.29,49
33.32,61
33.35,58
33.38,51
33.41,47
33.44,71
33.47,68
33.5,69
33.53,76
33.56,64
33.59,71
33.62,69
33.65,81
33.68,84
33.71,93
33.74,89
33.77,96
33.8,101
33.83,126
33.86,106
33.89,113
33.92,114
33.95,78
33.98,114
34.01,134
34.04,111
34.07,153
34.1,207
34.13,205
34.16,254
34.19,249
34.22,210
34.25,200
34.28,192
34.31,167
34.34,146
34.37,185
34.4,199
34.43,168
34.46,155
34.49,155
34.52,184
34.55,178
34.58,185
34.61,195
34.64,186
34.67,177
34.7,154
34.73,114
34.76,123
34.79,111
34.82,62
34.85,74
34.88,59
34.91,62
34.94,45
34.97,57
35,46
35.03,61
35.06,57
35.09,68
35.12,63
35.15,43
35.18,49
35.21,67
35.24,46
35.27,63
35.3,49
35.33,52
35.36,45
35.39,54
35.42,62
35.45,61
35.48,64
35.51,65
35.54,66
35.57,76
35.6,66
35.63,47
35.66,58
35.69,54
35.72,66
35.75,63
35.78,75
35.81,97
35.84,113
35.87,147
35.9,202
35.93,278
35.96,495
35.99,963
36.02,1150
36.05,1067
36.08,766
36.11,615
36.14,532
36.17,294
36.2,101
36.23,96
36.26,77
36.29,69
36.32,56
36.35,48
36.38,47
36.41,47
36.44,43
36.47,56
36.5,51
36.53,49
36.56,57
36.59,41
36.62,46
36.65,45
36.68,47
36.71,52
36.74,52
36.77,47
36.8,37
36.83,48
36.86,50
36.89,42
36.92,53
36.95,51
36.98,46
37.01,53
37.04,56
37.07,63
37.1,35
37.13,59
37.16,41
37.19,28
37.22,47
37.25,43
37.28,48
37.31,56
37.34,49
37.37,45
37.4,53
37.43,47
37.46,46
37.49,36
37.52,49
37.55,42
37.58,47
37.61,43
37.64,48
37.67,50
37.7,47
37.73,46
37.76,50
37.79,56
37.82,49
37.85,40
37.88,47
37.91,46
37.94,58
37.97,44
38,45
38.03,49
38.06,55
38.09,45
38.12,39
38.15,59
38.18,48
38.21,50
38.24,49
38.27,52
38.3,55
38.33,57
38.36,49
38.39,54
38.42,51
38.45,53
38.48,59
38.51,46
38.54,43
38.57,57
38.6,54
38.63,60
38.66,47
38.69,52
38.72,54
38.75,59
38.78,56
38.81,52
38.84,57
38.87,68
38.9,71
38.93,76
38.96,48
38.99,51
39.02,46
39.05,50
39.08,53
39.11,72
39.14,53
39.17,59
39.2,83
39.23,97
39.26,118
39.29,158
39.32,220
39.35,332
39.38,523
39.41,1095
39.44,1733
39.47,1866
39.5,1541
39.53,1016
39.56,976
39.59,812
39.62,462
39.65,183
39.68,124
39.71,102
39.74,88
39.77,77
39.8,61
39.83,56
39.86,67
39.89,47
39.92,52
39.95,58
39.98,61
40.01,62
40.04,54
40.07,65
40.1,47
40.13,41
40.16,44
40.19,50
40.22,43
40.25,56
40.28,57
40.31,44
40.34,39
40.37,49
40.4,46
40.43,56
40.46,74
40.49,60
40.52,63
40.55,50
40.58,49
40.61,54
40.64,49
40.67,39
40.7,50
40.73,46
40.76,40
40.79,39
40.82,37
40.85,53
40.88,44
40.91,49
40.94,45
40.97,48
41,44
41.03,64
41.06,42
41.09,50
41.12,40
41.15,51
41.18,41
41.21,46
41.24,59
41.27,49
41.3,41
41.33,49
41.36,47
41.39,44
41.42,47
41.45,46
41.48,54
41.51,42
41.54,54
41.57,66
41.6,44
41.63,44
41.66,58
41.69,55
41.72,51
41.75,44
41.78,62
41.81,57
41.84,83
41.87,82
41.9,105
41.93,87
41.96,133
41.99,167
42.02,197
42.05,226
42.08,209
42.11,205
42.14,186
42.17,177
42.2,156
42.23,120
42.26,107
42.29,80
42.32,94
42.35,72
42.38,90
42.41,81
42.44,94
42.47,71
42.5,68
42.53,67
42.56,57
42.59,72
42.62,72
42.65,78
42.68,86
42.71,80
42.74,98
42.77,97
42.8,93
42.83,90
42.86,113
42.89,124
42.92,110
42.95,131
42.98,137
43.01,164
43.04,186
43.07,204
43.1,261
43.13,448
43.16,909
43.19,1543
43.22,1604
43.25,1216
43.28,808
43.31,823
43.34,765
43.37,474
43.4,206
43.43,111
43.46,89
43.49,75
43.52,75
43.55,80
43.58,65
43.61,94
43.64,66
43.67,69
43.7,64
43.73,66
43.76,62
43.79,47
43.82,50
43.85,49
43.88,66
43.91,57
43.94,38
43.97,54
44,69
44.03,56
44.06,57
44.09,68
44.12,63
44.15,62
44.18,80
44.21,88
44.24,107
44.27,102
44.3,85
44.33,104
44.36,101
44.39,89
44.42,74
44.45,83
44.48,88
44.51,106
44.54,95
44.57,84
44.6,73
44.63,91
44.66,79
44.69,86
44.72,79
44.75,96
44.78,101
44.81,119
44.84,121
44.87,167
44.9,172
44.93,183
44.96,162
44.99,138
45.02,131
45.05,122
45.08,102
45.11,89
45.14,81
45.17,67
45.2,58
45.23,57
45.26,59
45.29,49
45.32,46
45.35,69
45.38,54
45.41,50
45.44,40
45.47,68
45.5,57
45.53,51
45.56,38
45.59,34
45.62,40
45.65,50
45.68,40
45.71,48
45.74,52
45.77,59
45.8,51
45.83,45
45.86,57
45.89,48
45.92,58
45.95,53
45.98,52
46.01,42
46.04,55
46.07,43
46.1,62
46.13,46
46.16,53
46.19,45
46.22,44
46.25,51
46.28,41
46.31,45
46.34,54
46.37,45
46.4,56
46.43,48
46.46,65
46.49,41
46.52,55
46.55,59
46.58,53
46.61,65
46.64,61
46.67,85
46.7,66
46.73,94
46.76,114
46.79,135
46.82,179
46.85,178
46.88,203
46.91,172
46.94,191
46.97,177
47,184
47.03,185
47.06,225
47.09,278
47.12,471
47.15,583
47.18,592
47.21,415
47.24,332
47.27,357
47.3,339
47.33,270
47.36,210
47.39,199
47.42,266
47.45,399
47.48,790
47.51,1431
47.54,2052
47.57,1842
47.6,1370
47.63,1024
47.66,1089
47.69,1090
47.72,764
47.75,322
47.78,173
47.81,128
47.84,93
47.87,90
47.9,80
47.93,80
47.96,57
47.99,47
48.02,61
48.05,70
48.08,71
48.11,67
48.14,49
48.17,72
48.2,65
48.23,74
48.26,66
48.29,88
48.32,121
48.35,110
48.38,152
48.41,181
48.44,296
48.47,533
48.5,1137
48.53,1697
48.56,1866
48.59,1462
48.62,922
48.65,946
48.68,1021
48.71,814
48.74,465
48.77,169
48.8,146
48.83,115
48.86,98
48.89,93
48.92,81
48.95,66
48.98,102
49.01,69
49.04,72
49.07,60
49.1,57
49.13,56
49.16,70
49.19,63
49.22,60
49.25,55
49.28,49
49.31,50
49.34,58
49.37,62
49.4,59
49.43,40
49.46,48
49.49,46
49.52,38
49.55,40
49.58,48
49.61,52
49.64,54
49.67,48
49.7,42
49.73,49
49.76,44
49.79,53
49.82,49
49.85,51
49.88,51
49.91,48
49.94,40
49.97,60
50,47
50.03,43
50.06,43
50.09,37
50.12,41
50.15,38
50.18,50
50.21,45
50.24,44
50.27,45
50.3,40
50.33,34
50.36,46
50.39,35
50.42,51
50.45,50
50.48,52
50.51,46
50.54,32
50.57,47
50.6,45
50.63,46
50.66,39
50.69,43
50.72,55
50.75,46
50.78,59
50.81,51
50.84,42
50.87,52
50.9,41
50.93,50
50.96,41
50.99,39
51.02,40
51.05,42
51.08,40
51.11,46
51.14,37
51.17,43
51.2,57
51.23,35
51.26,36
51.29,38
51.32,26
51.35,47
51.38,43
51.41,54
51.44,48
51.47,44
51.5,46
51.53,37
51.56,38
51.59,45
51.62,34
51.65,41
51.68,42
51.71,41
51.74,39
51.77,50
51.8,41
51.83,37
51.86,44
51.89,47
51.92,43
51.95,41
51.98,39
52.01,41
52.04,33
52.07,39
52.1,32
52.13,36
52.16,48
52.19,41
52.22,44
52.25,27
52.28,40
52.31,32
52.34,25
52.37,42
52.4,43
52.43,43
52.46,39
52.49,37
52.52,40
52.55,47
52.58,36
52.61,36
52.64,44
52.67,34
52.7,43
52.73,47
52.76,40
52.79,46
52.82,44
52.85,37
52.88,32
52.91,46
52.94,48
52.97,47
53,54
53.03,37
53.06,55
53.09,40
53.12,40
53.15,34
53.18,41
53.21,37
53.24,45
53.27,38
53.3,48
53.33,46
53.36,29
53.39,35
53.42,33
53.45,36
53.48,25
53.51,36
53.54,42
53.57,32
53.6,40
53.63,33
53.66,43
53.69,40
53.72,42
53.75,50
53.78,36
53.81,42
53.84,39
53.87,45
53.9,37
53.93,35
53.96,31
53.99,34
54.02,26
54.05,34
54.08,46
54.11,42
54.14,46
54.17,32
54.2,28
54.23,44
54.26,38
54.29,38
54.32,54
54.35,34
54.38,46
54.41,44
54.44,48
54.47,42
54.5,38
54.53,41
54.56,50
54.59,45
54.62,47
54.65,43
54.68,47
54.71,46
54.74,66
54.77,62
54.8,47
54.83,58
54.86,51
54.89,51
54.92,76
54.95,60
54.98,52
55.01,49
55.04,38
55.07,43
55.1,47
55.13,57
55.16,38
55.19,39
55.22,36
55.25,43
55.28,46
55.31,49
55.34,55
55.37,55
55.4,54
55.43,57
55.46,39
55.49,44
55.52,49
55.55,54
55.58,51
55.61,50
55.64,56
55.67,66
55.7,61
55.73,65
55.76,65
55.79,78
55.82,72
55.85,66
55.88,61
55.91,50
55.94,42
55.97,50
56,59
56.03,53
56.06,66
56.09,56
56.12,49
56.15,55
56.18,67
56.21,48
56.24,54
56.27,73
56.3,59
56.33,79
56.36,99
56.39,51
56.42,80
56.45,72
56.48,73
56.51,100
56.54,156
56.57,259
56.6,341
56.63,274
56.66,211
56.69,141
56.72,160
56.75,183
56.78,150
56.81,128
56.84,64
56.87,55
56.9,39
56.93,38
56.96,43
56.99,41
57.02,41
57.05,40
57.08,40
57.11,35
57.14,53
57.17,48
57.2,67
57.23,63
57.26,63
57.29,85
57.32,110
57.35,184
57.38,395
57.41,635
57.44,785
57.47,686
57.5,445
57.53,272
57.56,354
57.59,416
57.62,400
57.65,261
57.68,133
57.71,70
57.74,63
57.77,57
57.8,42
57.83,49
57.86,46
57.89,48
57.92,41
57.95,41
57.98,49
58.01,61
58.04,65
58.07,84
58.1,129
58.13,128
58.16,107
58.19,77
58.22,67
58.25,76
58.28,93
58.31,62
58.34,71
58.37,50
58.4,37
58.43,39
58.46,27
58.49,55
58.52,41
58.55,45
58.58,42
58.61,33
58.64,33
58.67,39
58.7,29
58.73,30
58.76,31
58.79,32
58.82,40
58.85,32
58.88,36
58.91,34
58.94,41
58.97,43
59,41
59.03,35
59.06,43
59.09,50
59.12,51
59.15,49
59.18,38
59.21,48
59.24,44
59.27,55
59.3,45
59.33,46
59.36,48
59.39,39
59.42,48
59.45,41
59.48,39
59.51,44
59.54,37
59.57,25
59.6,39
59.63,34
59.66,33
59.69,43
59.72,41
59.75,46
59.78,32
59.81,41
59.84,41
59.87,49
59.9,40
59.93,40
59.96,29
59.99,30
60.02,37
60.05,34
60.08,39
60.11,28
60.14,28
60.17,37
60.2,33
60.23,41
60.26,33
60.29,49
60.32,50
60.35,46
60.38,27
60.41,31
60.44,57
60.47,61
60.5,49
60.53,69
60.56,75
60.59,102
60.62,155
60.65,274
60.68,467
60.71,522
60.74,422
60.77,263
60.8,208
60.83,218
60.86,296
60.89,315
60.92,265
60.95,183
60.98,217
61.01,269
61.04,290
61.07,243
61.1,194
61.13,144
61.16,140
61.19,176
61.22,168
61.25,151
61.28,116
61.31,104
61.34,135
61.37,216
61.4,321
61.43,258
61.46,201
61.49,116
61.52,113
61.55,157
61.58,134
61.61,152
61.64,106
61.67,59
61.7,48
61.73,44
61.76,41
61.79,53
61.82,36
61.85,36
61.88,51
61.91,45
61.94,41
61.97,43
62,59
62.03,40
62.06,52
62.09,52
62.12,43
62.15,40
62.18,44
62.21,32
62.24,29
62.27,38
62.3,35
62.33,42
62.36,43
62.39,34
62.42,44
62.45,48
62.48,34
62.51,45
62.54,40
62.57,38
62.6,34
62.63,40
62.66,41
62.69,32
62.72,44
62.75,42
62.78,34
62.81,30
62.84,36
62.87,40
62.9,40
62.93,40
62.96,35
62.99,76
63.02,98
63.05,158
63.08,190
63.11,210
63.14,143
63.17,91
63.2,89
63.23,97
63.26,119
63.29,134
63.32,89
63.35,57
63.38,45
63.41,26
63.44,27
63.47,38
63.5,56
63.53,28
63.56,34
63.59,37
63.62,26
63.65,32
63.68,36
63.71,24
63.74,22
63.77,23
63.8,27
63.83,32
63.86,34
63.89,47
63.92,26
63.95,29
63.98,28
64.01,41
64.04,23
64.07,22
64.1,46
64.13,36
64.16,26
64.19,28
64.22,44
64.25,24
64.28,41
64.31,29
64.34,32
64.37,29
64.4,28
64.43,35
64.46,55
64.49,47
64.52,53
64.55,57
64.58,84
64.61,135
64.64,240
64.67,396
64.7,543
64.73,414
64.76,268
64.79,164
64.82,196
64.85,243
64.88,231
64.91,245
64.94,134
64.97,106
65,55
65.03,47
65.06,45
65.09,43
65.12,46
65.15,30
65.18,33
65.21,31
65.24,31
65.27,39
65.3,26
65.33,34
65.36,34
65.39,34
65.42,47
65.45,43
65.48,47
65.51,67
65.54,81
65.57,122
65.6,205
65.63,242
65.66,259
65.69,194
65.72,138
65.75,116
65.78,132
65.81,147
65.84,154
65.87,105
65.9,75
65.93,55
65.96,36
65.99,37
66.02,41
66.05,31
66.08,31
66.11,39
66.14,24
66.17,31
66.2,28
66.23,32
66.26,29
66.29,35
66.32,35
66.35,32
66.38,36
66.41,39
66.44,30
66.47,21
66.5,31
66.53,33
66.56,20
66.59,28
66.62,28
66.65,24
66.68,31
66.71,27
66.74,32
66.77,31
66.8,29
66.83,28
66.86,28
66.89,21
66.92,36
66.95,32
66.98,32
67.01,17
67.04,39
67.07,26
67.1,31
67.13,18
67.16,29
67.19,28
67.22,26
67.25,24
67.28,28
67.31,32
67.34,34
67.37,28
67.4,37
67.43,28
67.46,26
67.49,30
67.52,27
67.55,28
67.58,28
67.61,39
67.64,34
67.67,25
67.7,28
67.73,38
67.76,37
67.79,35
67.82,33
67.85,16
67.88,41
67.91,40
67.94,28
67.97,46
68,25
68.03,50
68.06,40
68.09,43
68.12,52
68.15,59
68.18,57
68.21,55
68.24,80
68.27,58
68.3,57
68.33,53
68.36,66
68.39,57
68.42,58
68.45,56
68.48,52
68.51,63
68.54,64
68.57,56
68.6,66
68.63,56
68.66,61
68.69,54
68.72,56
68.75,49
68.78,46
68.81,61
68.84,57
68.87,51
68.9,49
68.93,41
68.96,38
68.99,35
69.02,28
69.05,43
69.08,44
69.11,35
69.14,52
69.17,98
69.2,130
69.23,155
69.26,99
69.29,73
69.32,58
69.35,60
69.38,81
69.41,75
69.44,90
69.47,58
69.5,58
69.53,49
69.56,39
69.59,56
69.62,53
69.65,61
69.68,63
69.71,44
69.74,55
69.77,56
69.8,44
69.83,54
69.86,49
69.89,55
69.92,45
69.95,62
69.98,50
70.01,56
,
