Raman_Shift,Intensity
cm^-^1,a.u.
50.3223,227.632
50.8498,226.63
51.3773,227.786
51.9027,236.626
52.4302,234.467
52.9576,237.254
53.4829,242.2
54.0102,245.567
54.5376,251.512
55.0628,260.721
55.5901,268.772
56.1173,278.612
56.6424,288.769
57.1696,303.872
57.6946,317.818
58.2218,333.027
58.7489,359.341
59.2738,393.128
59.8009,403.126
60.3258,418.809
60.8528,432.913
61.3776,439.384
61.9045,443.33
62.4314,463.065
62.9562,480.379
63.483,491.43
64.0077,506.271
64.5345,527.742
65.0591,540.951
65.5858,564.107
66.1104,581.369
66.637,600.314
67.1615,633.418
67.6881,646.363
68.2126,657.099
68.7391,686.834
69.2635,702.043
69.79,719.199
70.3143,737.618
70.8408,765.248
71.365,787.878
71.8914,808.086
72.4156,813.927
72.9419,814.451
73.4661,832.766
73.9902,843.237
74.5164,853.183
75.0405,887.234
75.5666,890.548
76.0906,890.178
76.6167,875.229
77.1407,871.28
77.6646,869.172
78.1906,860.96
78.7144,857.59
79.2404,853.694
79.7642,854.113
80.288,853.901
80.8138,852.846
81.3375,854.424
81.8612,860.053
82.387,877.788
82.9106,884.997
83.4363,887.153
83.9599,888.625
84.4834,876.15
85.0091,872.148
85.5325,891.515
86.056,901.197
86.5815,914.353
87.1049,930.72
87.6283,945.876
88.1516,960.822
88.677,987.294
89.2003,1003.08
89.7235,1033.45
90.2488,1050.81
90.772,1048.5
91.2952,1051.02
91.8183,1034.49
92.3435,997.44
92.8666,984.859
93.3896,973.752
93.9126,962.329
94.4377,954.959
94.9607,943.747
95.4836,926.324
96.0065,929.743
96.5314,934.215
97.0543,935.003
97.5771,928.896
98.0998,932.999
98.6226,948.313
99.1474,953.575
99.6701,935.994
100.193,943.887
100.715,935.254
101.238,938.357
101.761,935.356
102.285,932.722
102.808,930.984
103.33,944.824
103.853,946.085
104.375,944.452
104.897,955.398
105.422,962.291
105.944,974.973
106.467,991.498
106.989,994.865
107.511,1005.18
108.033,997.598
108.555,1000.91
109.078,1018.91
109.6,1023.17
110.122,1028.22
110.646,1042.69
111.168,1042.43
111.69,1066.11
112.212,1076.53
112.734,1085.74
113.256,1106.79
113.778,1120.37
114.3,1118.79
114.821,1137.05
115.343,1155.68
115.865,1159.36
116.387,1168.83
116.909,1189.2
117.43,1205.62
117.952,1213.46
118.473,1210.72
118.995,1229.93
119.517,1235.93
120.038,1247.29
120.56,1263.45
121.081,1272.92
121.603,1300.29
122.124,1303.13
122.645,1337.5
123.167,1340.92
123.688,1364.7
124.209,1382.86
124.731,1407.23
125.252,1414.17
125.773,1442.54
126.292,1463.33
126.813,1500.64
127.335,1530.8
127.856,1563.79
128.377,1608.79
128.898,1639.32
129.419,1692.05
129.94,1735.58
130.461,1794.15
130.982,1849.47
131.5,1919.78
132.021,1996.25
132.542,2086.62
133.063,2168.99
133.584,2249.09
134.105,2344.46
134.625,2464.14
135.144,2563.61
135.664,2674.08
136.185,2798.03
136.706,2874.98
137.226,2967.45
137.745,3028.6
138.265,3089.92
138.786,3128.07
139.306,3135.7
139.827,3127.86
140.345,3119.65
140.865,3083.96
141.386,3033.28
141.906,3016.33
142.424,2950.8
142.944,2915.53
143.465,2865.74
143.985,2841.95
144.503,2817.21
145.023,2766.74
145.543,2758.52
146.063,2729.21
146.581,2718.15
147.101,2709.78
147.621,2711.04
148.139,2706.1
148.659,2692.2
149.179,2693.35
149.699,2698.62
150.217,2697.82
150.736,2699.3
151.256,2699.24
151.774,2667.61
152.294,2661.5
152.813,2651.71
153.331,2613.81
153.851,2595.71
154.368,2532.34
154.888,2482.65
155.407,2453.07
155.925,2372.54
156.444,2324.17
156.964,2272.91
157.481,2227.33
158,2175.01
158.518,2141.01
159.037,2095.64
159.556,2071.58
160.074,2038.27
160.593,2003
161.11,1968.79
161.629,1932.21
162.146,1883.26
162.665,1853.94
163.182,1775.99
163.701,1724.41
164.221,1677.04
164.737,1612.83
165.257,1563.3
165.773,1490.19
166.292,1440.98
166.809,1392.45
167.328,1319.56
167.845,1288.56
168.364,1239.97
168.88,1206.6
169.399,1150.76
169.916,1121.81
170.435,1088.18
170.951,1059.97
171.47,1019.07
171.986,1004.33
172.503,975.171
173.021,956.275
173.538,948.957
174.056,922.797
174.573,909.638
175.091,883.057
175.608,874.792
176.124,858.738
176.642,845.052
177.158,827.103
177.677,822.575
178.193,816.678
178.709,804.729
179.227,800.517
179.743,793.199
180.262,776.25
180.778,771.67
181.294,769.615
181.812,768.613
182.328,760.717
182.844,763.189
183.362,765.766
183.878,747.975
184.393,744.447
184.911,742.235
185.427,736.443
185.943,737.6
186.461,727.335
186.976,718.701
187.492,712.963
188.01,703.435
188.525,692.959
189.041,692.905
189.557,676.535
190.074,674.901
190.59,669.952
191.105,659.635
191.621,649.528
192.138,643.105
192.653,640.84
193.169,637.365
193.684,637.521
194.202,624.677
194.717,623.359
195.232,618.884
195.747,610.514
196.262,614.144
196.78,606.247
197.295,607.614
197.81,598.244
198.325,593.295
198.84,587.714
199.357,591.765
199.872,581.763
200.387,587.814
200.902,579.18
201.417,581.863
201.932,583.598
202.449,579.017
202.964,574.647
203.478,572.54
203.993,565.433
204.508,565.168
205.022,561.851
205.537,566.586
206.052,568.268
206.568,562.267
207.083,561.633
207.598,558.947
208.112,566.156
208.627,564.997
209.141,560.311
209.656,562.783
210.17,566.676
210.684,563.99
211.199,562.356
211.713,567.46
212.227,563.774
212.742,565.404
213.256,574.718
213.77,576.242
214.284,582.662
214.798,583.028
215.312,587.237
215.827,588.341
216.341,592.655
216.855,600.6
217.369,596.809
217.883,602.334
218.397,608.226
218.911,618.225
219.424,621.539
219.938,624.958
220.452,637.641
220.966,637.165
221.48,638.111
221.994,639.583
222.507,645.265
223.021,654.632
223.535,658.051
224.048,666.892
224.562,664.732
225.075,673.046
225.587,670.255
226.1,684.621
226.614,681.304
227.127,683.565
227.641,681.985
228.154,684.509
228.668,685.823
229.181,679.348
229.692,686.346
230.206,667.029
230.719,673.658
231.232,677.551
231.745,668.339
232.258,656.706
232.772,659.336
233.283,649.281
233.796,643.701
234.309,632.699
234.822,630.381
235.335,630.116
235.846,618.799
236.359,616.06
236.872,604.532
237.385,596.531
237.895,590.16
238.408,586.527
238.921,572.157
239.434,572.366
239.944,571.101
240.457,559.52
240.97,556.15
241.483,551.201
241.993,545.831
242.506,537.671
243.018,533.143
243.531,526.457
244.041,529.192
244.554,520.19
245.066,521.346
245.577,507.818
246.089,510.238
246.602,495.815
247.112,495.129
247.624,490.864
248.136,496.231
248.647,492.913
249.159,486.648
249.671,488.804
250.181,483.013
250.693,480.696
251.206,476.378
251.716,477.482
252.228,473.375
252.738,475.636
253.25,471.003
253.762,466.317
254.271,465.736
254.783,458.787
255.293,454.68
255.805,459.047
256.317,455.519
256.827,451.148
257.339,451.252
257.848,448.356
258.36,442.985
258.87,441.72
259.381,443.35
259.893,437.98
260.402,435.399
260.914,439.608
261.424,428.975
261.935,428.026
262.445,422.761
262.956,423.864
263.465,417.915
263.977,414.598
264.486,413.859
264.997,405.91
265.507,403.382
266.018,404.591
266.527,396.115
267.036,388.798
267.548,388.586
268.057,385.689
268.568,385.266
269.077,374.528
269.588,373.947
270.097,369.893
270.608,364.733
271.117,362.994
271.626,364.835
272.137,360.78
272.646,349.2
273.157,342.672
273.666,346.986
274.174,339.142
274.685,337.298
275.194,337.77
275.705,332.031
276.214,328.24
276.722,323.238
277.233,318.71
277.741,316.13
278.25,306.917
278.761,306.074
279.269,301.177
279.778,297.912
280.288,294.753
280.797,292.593
281.305,287.591
281.815,284.747
282.324,287.43
282.832,283.586
283.34,275.374
283.851,274.372
284.359,271.16
284.867,272
285.375,261.735
285.885,267.102
286.394,254.626
286.902,256.098
287.41,252.57
287.92,246.2
288.428,246.777
288.936,243.828
289.444,241.353
289.954,241.088
290.462,234.56
290.969,233.295
291.477,231.767
291.985,230.344
292.495,232.132
293.003,226.867
293.51,215.76
294.018,222.074
294.526,224.02
295.033,216.018
295.543,215.121
296.051,208.225
296.558,209.96
297.066,203.537
297.573,206.114
298.081,200.902
298.588,197.9
299.098,198.214
299.605,196.107
300.112,192.842
300.62,192.999
301.127,189.576
301.634,190.206
302.142,187.888
302.649,185.465
303.156,180.358
303.663,176.988
304.17,181.092
304.677,179.248
305.186,175.615
305.694,175.771
306.201,173.716
306.708,172.241
307.215,171.029
307.721,171.027
308.228,168.604
308.735,165.708
309.242,165.074
309.749,166.809
310.256,163.86
310.762,164.28
311.269,161.278
311.776,157.697
312.283,158.485
312.789,158.536
313.296,155.692
313.803,155.216
314.309,155.425
314.814,153.529
315.32,150.422
315.827,149.736
316.333,151.945
316.839,151.311
317.346,150.52
317.852,145.518
318.359,145.411
318.865,146.146
319.371,149.408
319.878,144.985
320.384,142.615
320.888,140.245
321.394,138.401
321.9,140.768
322.406,138.555
322.913,135.764
323.419,137.078
323.925,138.287
324.429,133.39
324.935,137.915
325.441,133.334
325.946,136.964
326.452,134.12
326.958,136.329
327.462,129.59
327.968,128.431
328.474,135.113
328.979,131.743
329.483,129.583
329.989,128.95
330.495,131.317
331,132.736
331.506,126.787
332.009,125.891
332.515,127.678
333.02,129.466
333.526,128.306
334.029,124.884
334.535,122.356
335.04,128.354
335.544,124.563
336.049,127.508
336.554,123.717
337.06,121.294
337.563,126.292
338.068,121.08
338.573,127.131
339.077,122.603
339.582,117.338
340.087,123.705
340.59,120.387
341.095,122.807
341.6,122.647
342.103,120.224
342.608,121.17
343.113,122.431
343.616,121.482
344.121,120.691
344.624,118.426
345.129,121.582
345.634,121.528
346.136,120.842
346.641,117.629
347.144,119.996
347.649,117.837
348.153,117.572
348.656,120.201
349.161,115.884
349.663,117.83
350.168,119.828
350.67,116.668
351.175,119.088
351.679,113.717
352.182,120.768
352.686,120.293
353.189,114.554
353.693,114.237
354.195,119.709
354.7,116.602
355.202,115.074
355.706,114.493
356.209,114.702
356.713,117.595
357.215,118.646
357.719,113.275
358.221,114.747
358.725,116.167
359.227,113.849
359.729,114.847
360.234,113.898
360.736,111.633
361.24,112.526
361.741,110.946
362.245,113.47
362.747,115.258
363.249,113.046
363.753,112.833
364.255,115.358
364.759,111.514
365.26,113.302
365.762,115.037
366.266,114.246
366.767,112.665
367.271,112.295
367.773,112.504
368.274,115.607
368.778,112.448
369.279,114.762
369.781,111.918
370.284,110.916
370.786,109.914
371.287,112.86
371.79,112.648
372.292,105.699
372.793,109.592
373.294,109.59
373.798,107.009
374.299,110.534
374.8,108.532
375.303,109.214
375.804,111.528
376.306,112.211
376.807,108.314
377.31,111.313
377.811,108.679
378.312,107.836
378.813,106.36
379.316,106.253
379.817,105.251
380.318,107.355
380.818,107.406
381.321,108.457
381.822,109.35
382.323,109.822
382.824,108.82
383.324,105.134
383.825,107.869
384.328,106.657
384.829,108.918
385.329,108.337
385.83,106.336
386.33,106.176
386.831,106.385
387.333,105.962
387.834,107.645
388.334,107.222
388.835,106.167
389.335,107.692
389.836,102.059
390.336,104.583
390.836,107.529
391.339,104.843
391.839,102.894
392.339,106.892
392.839,106.469
393.34,103.678
393.84,105.518
394.34,101.359
394.84,104.936
395.34,104.776
395.84,103.511
396.34,106.299
396.84,104.982
397.34,106.506
397.84,106.189
398.34,105.871
398.84,106.08
399.34,103.552
399.84,103.182
400.339,103.969
400.839,103.704
401.339,105.65
401.839,104.28
402.338,102.383
402.838,100.329
403.338,105.327
403.837,104.431
404.337,103.429
404.836,103.375
405.336,103.899
405.835,100.266
406.335,106.106
406.834,102.578
407.334,103.471
407.833,102.627
408.33,105.31
408.83,102.782
409.329,105.359
409.828,102.62
410.328,105.934
410.827,105.459
411.326,106.931
411.825,103.192
412.322,103.033
412.822,103.136
413.321,102.345
413.82,104.185
414.319,102.394
414.818,103.656
415.317,103.338
415.814,103.336
416.313,103.335
416.811,103.701
417.31,106.489
417.809,104.856
418.306,101.591
418.805,108.905
419.304,108.008
419.802,104.586
420.299,101.321
420.798,103.529
421.296,102.37
421.795,103.579
422.292,101.208
422.79,100.628
423.289,102.837
423.787,100.73
424.284,103.201
424.782,100.831
425.281,99.7243
425.779,101.828
426.275,101.984
426.774,103.351
427.272,102.138
427.768,100.716
428.267,100.03
428.765,103.344
429.261,104.342
429.759,101.814
430.257,100.865
430.754,101.653
431.252,101.177
431.75,104.386
432.246,101.279
432.744,100.54
433.24,103.381
433.738,98.5894
434.236,100.114
434.732,102.586
435.23,102.689
435.725,101.161
436.223,102.475
436.721,100.895
437.217,103.314
437.715,98.2597
438.21,102.047
438.708,101.098
439.204,101.939
439.701,98.4106
440.199,100.935
440.695,100.828
441.192,101.3
441.688,98.1931
442.185,100.665
442.681,99.4002
443.178,99.8721
443.673,99.1335
444.171,99.5002
444.666,100.604
445.164,98.8651
445.659,101.074
446.156,102.177
446.651,100.807
447.147,99.2792
447.644,101.067
448.139,100.065
448.636,100.906
449.131,99.8512
449.629,100.692
450.124,98.5319
450.621,97.7407
451.116,99.1074
451.611,98.4214
452.108,98.2618
452.603,96.8916
453.099,99.6267
453.594,101.678
454.089,98.8864
454.586,98.5162
455.081,96.304
455.576,104.881
456.072,101.985
456.567,98.9303
457.062,97.8233
457.558,97.4005
458.053,97.7672
458.548,97.397
459.044,99.0795
459.539,95.4988
460.033,100.655
460.53,97.6532
461.024,98.6515
461.519,99.176
462.015,99.4375
462.51,97.6463
463.004,98.5392
463.498,98.3796
463.995,93.4305
464.489,98.1656
464.983,96.5323
465.477,98.1621
465.974,100.739
466.468,97.2113
466.962,97.5779
467.456,96.9446
467.952,97.1008
468.446,98.2569
468.94,97.4131
469.434,96.2534
469.928,99.1464
470.424,100.039
470.918,97.564
471.412,97.6149
471.906,97.0868
472.4,101.453
472.896,100.031
473.389,98.8711
473.883,98.0272
474.377,96.7623
474.871,95.129
475.364,98.0746
475.858,97.8097
476.352,96.6501
476.847,98.0168
477.341,98.015
477.835,95.4343
478.328,99.9589
478.822,98.0098
479.315,95.3765
479.808,96.6905
480.302,97.5835
480.795,98.1607
481.289,96.5274
481.782,100.052
482.275,99.0502
482.771,97.6274
483.264,95.6257
483.757,96.4134
484.25,97.3064
484.744,97.9889
485.237,98.6187
485.73,97.8275
486.223,97.7731
486.716,95.5609
487.209,99.8749
487.702,96.9258
488.195,96.0293
488.688,95.5013
489.181,96.289
489.674,98.4451
490.167,97.8118
490.658,97.1785
491.15,96.8083
491.643,98.5434
492.136,97.3838
492.629,95.9084
493.122,96.5382
493.614,94.5891
494.107,96.4821
494.6,99.5856
495.092,96.7944
495.585,96.1084
496.077,97.0014
496.568,97.8944
497.06,99.2611
497.553,97.4172
498.045,94.9945
498.538,101.572
499.03,100.254
499.523,93.7261
500.013,96.9875
500.505,97.4594
500.998,97.6156
501.49,97.298
501.982,96.77
502.474,97.1893
502.964,100.345
503.457,97.6069
503.949,98.7104
504.441,99.1823
504.933,98.2858
505.423,94.9683
505.915,97.0718
506.407,97.0701
506.899,98.7525
507.389,95.5929
507.881,99.4333
508.373,98.4315
508.865,98.114
509.355,93.4807
509.846,99.9
510.338,95.793
510.83,95.2123
511.32,97.9474
511.811,98.2614
512.303,97.3123
512.793,98.679
513.284,98.8878
513.776,95.3597
514.266,96.8317
514.757,98.5141
515.249,96.565
515.738,98.9317
516.23,97.3042
516.721,99.7354
517.211,97.771
517.702,98.8268
518.193,100.132
518.683,95.9823
519.174,98.1019
519.663,97.6764
520.154,99.8446
520.646,95.3682
521.135,96.4421
521.626,96.5203
522.115,96.7839
522.606,98.7715
523.098,95.7736
523.587,99.8389
524.078,102.005
524.567,97.97
525.058,101.5
525.547,98.0641
526.038,95.8912
526.526,98.7679
527.017,98.8376
527.506,96.8614
527.997,97.0695
528.486,96.5971
528.977,99.1306
529.465,97.7652
529.956,96.7839
530.445,98.0094
530.936,96.0336
531.424,95.9551
531.915,95.9142
532.403,98.9493
532.894,95.8763
533.383,97.0795
533.873,98.307
534.362,95.9582
534.85,97.2999
535.341,97.4757
535.829,98.2509
536.319,97.0099
536.808,98.0674
537.296,97.76
537.786,95.6106
538.275,95.355
538.765,97.6232
539.253,97.335
539.741,98.345
540.231,98.124
540.72,97.82
541.208,95.7219
541.698,96.9756
542.186,95.551
542.674,96.3596
543.164,94.9493
543.652,95.9401
544.14,96.3901
544.63,96.1665
545.118,96.8156
545.606,95.7876
546.096,96.7989
546.583,96.0038
547.071,94.9459
547.559,94.5055
548.049,95.301
548.536,94.8344
549.024,94.9678
549.514,92.8597
550.001,94.187
550.489,96.1185
550.977,92.8459
551.464,92.9917
551.954,94.6948
552.441,93.2456
552.929,94.536
553.416,93.8171
553.906,94.8639
554.393,95.2825
554.88,95.151
555.368,92.9792
555.855,94.0608
556.343,92.7873
556.832,91.3345
557.319,91.2981
557.806,93.3228
558.293,94.1092
558.781,91.8402
559.268,91.0751
559.755,92.3127
560.244,91.779
560.731,92.701
561.218,92.9457
561.705,90.9391
562.192,91.988
562.679,92.4346
563.166,92.0832
563.653,92.7053
564.14,91.3983
564.627,89.2862
565.114,90.8599
565.187,91.1781
565.677,92.0154
566.17,89.642
566.663,91.9004
567.156,89.8955
567.649,92.1538
568.139,93.1489
568.632,88.6177
569.125,91.6654
569.618,90.7658
570.108,94.1294
570.601,87.8087
571.093,91.2775
571.586,90.0095
572.077,87.8994
572.569,88.8945
573.062,90.1001
573.554,90.5689
574.044,92.9851
574.537,94.2434
575.029,91.3964
575.52,91.2863
576.012,89.4919
576.504,91.4344
576.996,90.2717
577.487,93.4773
577.979,91.8408
578.471,91.7833
578.961,91.989
579.453,89.8789
579.945,90.3477
580.436,89.2375
580.928,88.6011
581.418,88.8594
581.91,90.1703
582.402,92.2707
582.892,88.4237
583.383,89.9451
583.875,89.7823
584.365,90.1985
584.857,85.2989
585.347,91.3993
585.839,89.7102
586.331,89.4422
586.82,88.911
587.312,90.3272
587.802,90.1644
588.293,88.949
588.783,90.5231
589.275,89.6235
589.766,90.4607
590.256,91.9821
590.747,89.2404
591.237,89.9198
591.728,88.1254
592.218,89.4363
592.709,89.1157
593.198,90.6897
593.69,90.1059
594.179,89.0484
594.67,91.7277
595.16,88.1966
595.651,90.1391
596.14,90.8184
596.631,89.6556
597.121,89.0718
597.612,91.1196
598.101,88.6936
598.59,87.6888
599.081,88.2628
599.57,88.3632
600.061,89.0425
600.55,92.5114
601.041,90.9275
601.53,89.1332
602.019,91.0757
602.51,87.5971
602.999,87.6975
603.49,89.7979
603.978,91.5825
604.467,90.5776
604.958,89.678
605.447,88.3573
605.937,87.0893
606.426,88.3476
606.915,87.448
607.405,85.601
607.894,89.1751
608.382,92.9597
608.873,92.9548
609.361,91.2657
609.85,92.3135
610.34,88.4665
610.829,91.9353
611.317,92.2462
611.808,90.9782
612.296,91.447
612.784,89.3369
613.275,88.3846
613.763,93.906
614.251,91.1117
614.739,89.0542
615.23,92.5756
615.718,91.255
616.206,90.4606
616.694,93.5084
617.184,91.8719
617.672,90.446
618.16,89.8095
618.648,91.331
619.138,93.1156
619.626,90.8475
620.114,88.4216
620.602,90.4167
621.09,91.4645
621.58,91.7228
622.068,88.6126
622.555,86.9236
623.043,91.3924
623.531,89.5454
624.021,91.6458
624.508,95.8514
624.996,89.0044
625.484,90.5785
625.971,92.6263
626.459,92.5162
626.947,90.985
627.436,90.7169
627.924,91.0278
628.411,88.9703
628.899,87.0707
629.386,92.8553
629.873,88.3768
630.361,92.4245
630.848,87.2091
631.336,89.8885
631.825,88.9888
632.312,91.8261
632.799,92.4528
633.287,88.6584
633.774,90.7588
634.261,91.1224
634.748,91.7491
635.235,90.6389
635.722,92.0025
636.209,91.2081
636.696,90.0454
637.183,90.6194
637.67,91.8777
638.157,90.2413
638.644,91.3417
639.131,92.4947
639.618,92.2266
640.105,88.9586
640.592,89.6906
641.079,91.1068
641.565,90.1545
642.052,91.7812
642.539,91.829
643.026,89.8241
643.512,91.6087
643.999,94.2354
644.486,92.0726
644.972,94.5941
645.459,91.7471
645.945,89.3212
646.432,91.9479
646.916,90.8377
647.403,91.9907
647.889,92.6175
648.376,89.2441
648.862,90.9761
649.348,90.8134
649.835,90.0716
650.321,89.4878
650.807,91.8514
651.292,90.5307
651.778,91.6311
652.264,93.7841
652.75,89.5687
653.236,92.0375
653.723,90.5063
654.209,87.8172
654.693,91.7071
655.179,93.4917
655.665,91.4342
656.151,89.4293
656.637,91.4771
657.121,90.3669
657.607,91.4673
658.093,92.8835
658.578,91.4576
659.064,93.5053
659.548,90.8689
660.034,90.6535
660.52,92.596
661.005,95.6964
661.489,91.5336
661.975,92.8971
662.46,93.6291
662.946,93.519
663.43,92.6194
663.915,94.0882
664.401,92.7149
664.886,93.2363
665.37,93.2314
665.855,94.2266
666.341,93.9059
666.824,95.0063
667.31,93.3172
667.795,96.1018
668.278,95.6232
668.764,93.7236
669.249,94.6135
669.732,94.0823
670.217,97.4458
670.703,96.9146
671.186,96.7519
671.671,98.4312
672.156,101.795
672.639,98.2636
673.124,101.522
673.607,99.5696
674.092,99.1437
674.578,103.507
675.06,102.608
675.545,104.445
676.028,102.335
676.513,103.014
676.998,106.272
677.481,109.057
677.966,111.684
678.449,112.784
678.933,113.358
679.416,118.669
679.901,122.769
680.386,124.186
680.868,129.444
681.353,133.544
681.836,142.75
682.32,147.85
682.803,156.109
683.287,168.367
683.77,177.73
684.254,197.568
684.737,222.879
685.221,252.4
685.704,290.29
686.188,322.917
686.67,368.754
