raman_shift, int
cm^-1, a.u.
850.38,69.727
850.86,71.364
851.33,73.364
851.81,73.364
852.28,71.909
852.76,72.818
853.23,72.454
853.7,74.818
854.18,73.546
854.65,74.818
855.13,73.182
855.6,74.636
856.08,73.182
856.55,75.364
857.02,81.545
857.5,79.364
857.97,77
858.45,76.091
858.92,77.545
859.39,76.454
859.87,78.091
860.34,78.273
860.82,80.091
861.29,75.364
861.76,79
862.24,78.636
862.71,77.909
863.18,77.364
863.66,72.454
864.13,75.909
864.6,75.727
865.08,73.727
865.55,77
866.02,75.182
866.5,71.727
866.97,76.818
867.45,71.182
867.92,72.091
868.39,70.454
868.87,73.364
869.34,69.182
869.81,74.636
870.28,68.818
870.76,68.273
871.23,67.364
871.7,69.545
872.18,69.909
872.65,71
873.12,71.182
873.59,66.273
874.07,66.091
874.54,66.454
875.01,64.455
875.49,70.273
875.96,67.364
876.43,67.182
876.9,67.182
877.38,66.273
877.85,63.909
878.32,66.454
878.79,64.636
879.27,64.636
879.74,67
880.21,60.818
880.68,61.909
881.15,64.636
881.63,63
882.1,61
882.57,61
883.04,63.909
883.52,65.546
883.99,62.636
884.46,62.636
884.93,61.364
885.4,63.727
885.88,59.909
886.35,59.182
886.82,65.545
887.29,61
887.76,58.455
888.24,59.364
888.71,58.636
889.18,62.636
889.65,61.364
890.12,60.273
890.59,60.636
891.07,59.545
891.54,65.364
892.01,59.727
892.48,58.818
892.95,58.273
893.42,56.636
893.89,54.818
894.37,61.727
894.84,59.364
895.31,59.182
895.78,57.364
896.25,58.091
896.72,57.545
897.19,60.455
897.66,60.455
898.13,63.364
898.61,57
899.08,60.091
899.55,63.727
900.02,60.636
900.49,57
900.96,56.455
901.43,58.273
901.9,61.364
902.37,58.818
902.84,64.091
903.31,57
903.78,58.455
904.26,57.727
904.73,57.364
905.2,60.636
905.67,62.091
906.14,62.273
906.61,57.909
907.08,61.364
907.55,61.182
908.02,60.455
908.49,59.364
908.96,59.909
909.43,61.364
909.9,62.273
910.37,60.091
910.84,59.182
911.31,61.727
911.78,59.909
912.25,59.364
912.72,59.909
913.19,58.273
913.66,58.091
914.13,59.182
914.6,59
915.07,61.364
915.54,65.546
916.01,61.364
916.48,57.909
916.95,60.273
917.42,56.818
917.89,60.273
918.36,59.727
918.83,57.909
919.29,61.727
919.76,58.091
920.23,59.182
920.7,57.909
921.17,58.818
921.64,60.818
922.11,58.091
922.58,59.909
923.05,57.545
923.52,58.636
923.99,58.636
924.46,59.545
924.92,60.636
925.39,56.636
925.86,60.818
926.33,56.818
926.8,57.545
927.27,54.818
927.74,57.909
928.21,54.091
928.68,51.909
929.14,58.273
929.61,55.364
930.08,55
930.55,54.636
931.02,56.455
931.49,56.273
931.96,57.364
932.42,61
932.89,56.636
933.36,58.636
933.83,59.545
934.3,51.909
934.77,57.727
935.23,57.182
935.7,55.545
936.17,57.727
936.64,55.909
937.11,58.455
937.58,59
938.04,55.182
938.51,57.909
938.98,53.545
939.45,57.909
939.91,56.273
940.38,54.455
940.85,54.455
941.32,55.727
941.79,56.818
942.25,55
942.72,53
943.19,55.182
943.66,57.545
944.12,55.182
944.59,51.182
945.06,55.909
945.53,53.727
946,55.727
946.46,53.727
946.93,54.091
947.4,52.273
947.86,53.545
948.33,56.273
948.8,54.455
949.26,54.636
949.73,52.091
950.2,53.909
950.67,53.545
951.13,52.636
951.6,53.364
952.07,56.455
952.53,52.818
953,54.818
953.47,49.909
953.93,57.182
954.4,49.364
954.87,52.818
955.33,50.455
955.8,55.727
956.27,51.182
956.74,51.545
957.2,53.727
957.67,55
958.13,53.909
958.6,52.636
959.07,49.364
959.53,48.091
960,50.273
960.47,51.364
960.93,50.818
961.4,50.636
961.87,52.636
962.33,56.636
962.8,50.455
963.26,52.091
963.73,51
964.2,47.727
964.66,51.727
965.13,52.091
965.59,50.455
966.06,54.091
966.52,51.545
966.99,49.545
967.46,56.455
967.92,55.909
968.39,49.545
968.86,49.909
969.32,50.455
969.78,53
970.25,50.091
970.72,50.273
971.18,49.545
971.65,53.545
972.11,52.455
972.58,49.909
973.04,51.727
973.51,51.909
973.98,49.909
974.44,51.364
974.9,49.545
975.37,48.091
975.84,52.091
976.3,46.273
976.77,50.636
977.23,50.091
977.7,51.727
978.16,49.727
978.63,49.182
979.09,50.091
979.56,52.273
980.02,48.455
980.49,48.818
980.95,49.545
981.41,47
981.88,50.636
982.35,50.091
982.81,51
983.27,47.182
983.74,49.182
984.2,50.636
984.67,49.909
985.13,49.545
985.6,49.727
986.06,51.182
986.52,51.909
986.99,48.636
987.45,49.182
987.92,49.364
988.38,50.455
988.85,51.545
989.31,52.636
989.78,46.273
990.24,48.091
990.7,51
991.17,47.727
991.63,48.636
992.1,50.455
992.56,49.182
993.02,46.091
993.49,50.818
993.95,44.636
994.41,50.636
994.88,49.909
995.34,48.273
995.8,48.455
996.27,51.727
996.73,48.091
997.2,48.455
997.66,50.818
998.12,49.727
998.59,49.909
999.05,49.909
999.51,51.182
999.98,51.364
1000.4,45.909
1000.9,53
1001.4,46.273
1001.8,47
1002.3,51
1002.8,50.636
1003.2,49.182
1003.7,48.273
1004.1,47.909
1004.6,47
1005.1,47.545
1005.5,47.727
1006,46.636
1006.5,51.182
1006.9,44.455
1007.4,48.091
1007.9,48.455
1008.3,51.182
1008.8,48.455
1009.2,50.091
1009.7,49.545
1010.2,50.818
1010.6,48.091
1011.1,49.545
1011.5,48.091
1012,50.091
1012.5,47.182
1012.9,50.091
1013.4,51.545
1013.9,52.091
1014.3,51.182
1014.8,49.727
1015.2,47.909
1015.7,48.091
1016.2,49.727
1016.6,50.818
1017.1,44.273
1017.6,48.091
1018,49.364
1018.5,51.364
1018.9,46.636
1019.4,51.545
1019.9,51.182
1020.3,49
1020.8,49.909
1021.2,48.818
1021.7,50.273
1022.2,49.909
1022.6,49.182
1023.1,49.364
1023.6,48.273
1024,51.545
1024.5,48.273
1025,50.818
1025.4,49.545
1025.9,47.909
1026.3,48.818
1026.8,50.636
1027.2,52.091
1027.7,52.636
1028.2,51
1028.6,52.273
1029.1,52.636
1029.6,53.182
1030,54.818
1030.5,51.909
1030.9,50.455
1031.4,56.455
1031.9,57.909
1032.3,58.273
1032.8,50.636
1033.2,56.636
1033.7,59.545
1034.2,55.182
1034.6,57.909
1035.1,53.182
1035.5,58.091
1036,59.364
1036.5,59.182
1036.9,61.182
1037.4,58.455
1037.8,57.364
1038.3,58.455
1038.8,61.727
1039.2,59
1039.7,59.727
1040.2,58.818
1040.6,61.182
1041.1,57
1041.5,60.091
1042,60.455
1042.5,59.364
1042.9,59.545
1043.4,61.545
1043.8,60.636
1044.3,59.727
1044.8,60.091
1045.2,63.909
1045.7,61.909
1046.1,59.364
1046.6,63.364
1047.1,61
1047.5,64.273
1048,70.454
1048.4,65.545
1048.9,67.546
1049.4,70.818
1049.8,73
1050.3,74.091
1050.7,75.364
1051.2,79.364
1051.7,80.454
1052.1,84.454
1052.6,90.091
1053,99.909
1053.5,100.82
1054,100.27
1054.4,111.73
1054.9,112.45
1055.3,122.64
1055.8,125.36
1056.2,131.91
1056.7,131.73
1057.2,143.73
1057.6,150.27
1058.1,152.27
1058.5,163.54
1059,166.46
1059.5,181.36
1059.9,183.36
1060.4,192.09
1060.8,198.27
1061.3,200.09
1061.8,215.73
1062.2,216.46
1062.7,231.18
1063.1,226.09
1063.6,239.54
1064,243.18
1064.5,245.36
1065,249.18
1065.4,252.64
1065.9,253.91
1066.3,259
1066.8,256.27
1067.2,261.91
1067.7,263.36
1068.2,268.45
1068.6,265.73
1069.1,267.18
1069.5,258.27
1070,261
1070.5,261.73
1070.9,248.64
1071.4,254.27
1071.8,247.91
1072.3,241.36
1072.8,239.18
1073.2,238.27
1073.7,229.18
1074.1,224.46
1074.6,219.18
1075,217.18
1075.5,210.82
1076,209
1076.4,202.64
1076.9,196.64
1077.3,189
1077.8,185.18
1078.2,182.64
1078.7,179.91
1079.2,167.18
1079.6,162.82
1080.1,153
1080.5,153
1081,148.46
1081.4,140.82
1081.9,139
1082.4,128.09
1082.8,125.91
1083.3,121.73
1083.7,114.09
1084.2,115.18
1084.6,109.73
1085.1,103.55
1085.6,100.64
1086,98.636
1086.5,89.546
1086.9,94.091
1087.4,88.273
1087.8,89.182
1088.3,82.818
1088.8,80.818
1089.2,78.818
1089.7,74.273
1090.1,71.727
1090.6,66.636
1091,69.727
1091.5,64.454
1092,68.636
1092.4,65.182
1092.9,62.091
1093.3,63.364
1093.8,62.455
1094.2,59.545
1094.7,53.727
1095.1,57.727
1095.6,53.545
1096.1,54.273
1096.5,52.818
1097,55.909
1097.4,52.818
1097.9,51.909
1098.3,51.727
1098.8,49.727
1099.2,49.182
1099.7,50.273
1100.2,52.273
1100.6,48.455
1101.1,44.455
1101.5,48.818
1102,43.727
1102.4,48.273
1102.9,45.727
1103.3,46.818
1103.8,48.091
1104.3,45.909
1104.7,45.364
1105.2,46.818
1105.6,44.091
1106.1,40.273
1106.5,45.909
1107,47.909
1107.5,40.273
1107.9,45.364
1108.4,44.455
1108.8,43.545
1109.3,43.182
1109.7,41.909
1110.2,42.455
1110.6,43.364
1111.1,42.273
1111.5,43
1112,42.636
1112.5,41
1112.9,44.455
1113.4,42.818
1113.8,41
1114.3,42.273
1114.7,44.091
1115.2,42.455
1115.6,44.273
1116.1,41.545
1116.5,41.364
1117,42.455
1117.5,43.727
1117.9,42.818
1118.4,43.182
1118.8,40.091
1119.3,41
1119.7,43.182
1120.2,44.273
1120.6,44.455
1121.1,39.545
1121.5,37.364
1122,40.636
1122.5,43.364
1122.9,42.091
1123.4,43.182
1123.8,43.909
1124.3,42.636
1124.7,39.545
1125.2,45.182
1125.6,40.636
1126.1,42.455
1126.5,46.091
1127,41.364
1127.4,43.182
1127.9,43.545
1128.3,41.182
1128.8,42.455
1129.3,41.364
1129.7,42.273
1130.2,41.364
1130.6,39.909
1131.1,40.818
1131.5,39.182
1132,39.727
1132.4,42.818
1132.9,38.818
1133.3,41.545
1133.8,43.545
1134.2,38.091
1134.7,37.909
1135.2,41
1135.6,39.727
1136.1,41.545
1136.5,42.818
1137,40.091
1137.4,41.182
1137.9,40.273
1138.3,42.091
1138.8,39.909
1139.2,37.364
1139.7,42.273
1140.1,35.727
1140.6,41.909
1141,38.818
1141.5,38.455
1142,41
1142.4,38.091
1142.8,41
1143.3,38.636
1143.8,40.091
1144.2,42.273
1144.7,40.455
1145.1,37.545
1145.6,43
1146,37.909
1146.5,38.455
1146.9,40.091
1147.4,38.455
1147.8,40.636
1148.3,39.364
1148.7,36.455
1149.2,39.182
1149.6,40.091
1150.1,40.091
1150.5,37.182
1151,38.818
1151.4,36.818
1151.9,38.636
1152.3,36.818
1152.8,38.636
1153.2,39
1153.7,40.273
1154.2,36.818
1154.6,36.818
1155.1,38.273
1155.5,40.636
1156,40.273
1156.4,38.818
1156.9,37.364
1157.3,38.455
1157.8,39.545
1158.2,39.545
1158.7,39.727
1159.1,36.455
1159.6,37
1160,37.727
1160.5,38.273
1160.9,36.818
1161.4,37.727
1161.8,37
1162.3,36.091
1162.7,38.818
1163.2,37
1163.6,37
1164.1,37.909
1164.5,36.818
1165,38.818
1165.4,40.455
1165.9,37.727
1166.3,37
1166.8,34.818
1167.2,35.182
1167.7,38.636
1168.1,36.455
1168.6,39.545
1169,36.455
1169.5,39.727
1169.9,37
1170.4,39
1170.8,37.182
1171.3,41.545
1171.7,35.909
1172.2,37.909
1172.6,35.909
1173.1,37.727
1173.5,38.636
1174,35.364
1174.5,37.364
1174.9,40.636
1175.3,38.818
1175.8,37.545
1176.2,38.091
1176.7,35.909
1177.2,39.727
1177.6,35.364
1178,34.455
1178.5,36.818
1179,37.545
1179.4,38.091
1179.8,35.727
1180.3,36.273
1180.8,36.818
1181.2,38.091
1181.6,37.364
1182.1,39.727
1182.5,38.091
1183,35.909
1183.4,36.273
1183.9,33.182
1184.3,37.909
1184.8,36.455
1185.2,38.091
1185.7,35.364
1186.1,38.091
1186.6,37.909
1187,35.364
1187.5,39.909
1187.9,37
1188.4,37.182
1188.8,38.455
1189.3,33.182
1189.7,36.273
1190.2,35.727
1190.6,38.818
1191.1,35.182
1191.5,35.364
1192,36.455
1192.4,35.909
1192.9,34.091
1193.3,37.364
1193.8,35.364
1194.2,35.182
1194.7,37.909
1195.1,34.455
1195.6,34.818
1196,36.818
1196.5,33.909
1196.9,38.091
1197.4,34.818
1197.8,34.273
1198.3,37
1198.7,37.909
1199.2,35.727
1199.6,36.818
1200,32.818
1200.5,37.364
1201,38.636
1201.4,32.636
1201.8,35
1202.3,34.818
1202.7,36.636
1203.2,34.091
1203.6,35.182
1204.1,35.909
1204.5,38.818
1205,37
1205.4,36.818
1205.9,36.636
1206.3,39.545
1206.8,34.818
1207.2,37.545
1207.7,35.364
1208.1,34.636
1208.6,37.182
1209,37.545
1209.5,37.545
1209.9,38.455
1210.3,37
1210.8,34.818
1211.2,35.364
1211.7,38.818
1212.1,37.364
1212.6,36.818
1213,37.909
1213.5,35.182
1213.9,37.182
1214.4,31.727
1214.8,34.091
1215.3,35
1215.7,32.818
1216.2,36.091
1216.6,33
1217.1,36.273
1217.5,34.818
1218,37
1218.4,33.364
1218.8,35
1219.3,36.636
1219.7,33.364
1220.2,37.727
1220.6,38.636
1221.1,35.182
1221.5,33.182
1222,37.364
1222.4,32.455
1222.9,32.636
1223.3,40.636
1223.8,34.818
1224.2,35.182
1224.7,35.182
1225.1,35
1225.5,33.909
1226,33.364
1226.4,35.545
1226.9,33.909
1227.3,38.273
1227.8,33.545
1228.2,37
1228.7,34.636
1229.1,38.636
1229.6,36.455
1230,33.545
1230.5,35.545
1230.9,32.455
1231.3,34.091
1231.8,37.727
1232.2,34.818
1232.7,36.091
1233.1,37.727
1233.6,35.909
1234,35.182
1234.5,40.273
1234.9,35.364
1235.3,36.273
1235.8,35.364
1236.2,35.364
1236.7,33.364
1237.1,34.273
1237.6,37.545
1238,32.818
1238.5,36.273
1238.9,36.636
1239.4,33.909
1239.8,36.818
1240.2,39.545
1240.7,34.818
1241.1,35.727
1241.6,35.545
1242,36.091
1242.5,40.818
1242.9,38.818
1243.4,39.182
1243.8,38.273
1244.3,39.364
1244.7,37.909
1245.2,38.091
1245.6,38.273
1246,43.727
1246.5,39.182
1246.9,38.091
1247.4,44.636
1247.8,39.545
1248.3,43.727
1248.7,41.909
1249.2,42.636
1249.6,41.909
