raman_shift, int
cm^-1, a.u.
850.38,60.636
850.86,63.545
851.33,61.364
851.81,58.273
852.28,61.545
852.76,59.364
853.23,62.091
853.7,59.545
854.18,61.364
854.65,59
855.13,61.909
855.6,60.455
856.08,61.545
856.55,64.273
857.02,61.545
857.5,63.909
857.97,62.273
858.45,60.455
858.92,61.545
859.39,62.636
859.87,61.909
860.34,61.364
860.82,58.818
861.29,64.455
861.76,57.727
862.24,62.091
862.71,62.818
863.18,62.091
863.66,59
864.13,65
864.6,60.091
865.08,61.727
865.55,63
866.02,64.636
866.5,63.727
866.97,60.818
867.45,62.091
867.92,63.727
868.39,61.182
868.87,62.273
869.34,62.091
869.81,62.455
870.28,61.727
870.76,62.455
871.23,63.182
871.7,63.364
872.18,63.909
872.65,59.909
873.12,58.091
873.59,64.636
874.07,60.091
874.54,63
875.01,61.364
875.49,59.545
875.96,59
876.43,61.364
876.9,63.909
877.38,58.818
877.85,57.909
878.32,59.909
878.79,58.091
879.27,56.273
879.74,58.273
880.21,57.727
880.68,57.182
881.15,60.636
881.63,59.909
882.1,54.273
882.57,54.091
883.04,61.182
883.52,59.545
883.99,61.727
884.46,59.727
884.93,57.727
885.4,56.091
885.88,56.091
886.35,57
886.82,58.273
887.29,55
887.76,58.091
888.24,57.364
888.71,58.091
889.18,61.182
889.65,53.909
890.12,57
890.59,57.909
891.07,59.182
891.54,55.909
892.01,59.727
892.48,60.273
892.95,56.091
893.42,58.818
893.89,57
894.37,57.364
894.84,55.182
895.31,58.455
895.78,57.909
896.25,60.455
896.72,62.455
897.19,59.545
897.66,53.727
898.13,56.091
898.61,59.364
899.08,58.091
899.55,58.818
900.02,57.727
900.49,60.455
900.96,57
901.43,57.727
901.9,59
902.37,52.818
902.84,59.727
903.31,60.455
903.78,60.273
904.26,58.455
904.73,59.364
905.2,58.818
905.67,61.727
906.14,60.273
906.61,59.727
907.08,57.727
907.55,55.545
908.02,59.727
908.49,61.182
908.96,59.182
909.43,54.455
909.9,58.818
910.37,54.636
910.84,55.364
911.31,59.727
911.78,60.091
912.25,58.455
912.72,59.909
913.19,59.182
913.66,56.455
914.13,60.273
914.6,55.182
915.07,58.091
915.54,62.818
916.01,55.545
916.48,58.091
916.95,58.818
917.42,58.455
917.89,65
918.36,61.909
918.83,58.455
919.29,57.909
919.76,62.636
920.23,59.364
920.7,55.364
921.17,59
921.64,58.818
922.11,57.727
922.58,57.909
923.05,61.727
923.52,58.636
923.99,58.636
924.46,56.091
924.92,57.727
925.39,60.636
925.86,57.364
926.33,59.182
926.8,59
927.27,59.364
927.74,57.909
928.21,55.727
928.68,57
929.14,57.182
929.61,57.545
930.08,56.636
930.55,55.727
931.02,57
931.49,59
931.96,56.636
932.42,52.091
932.89,59.364
933.36,56.455
933.83,55.364
934.3,55.182
934.77,57.727
935.23,54.273
935.7,52.091
936.17,54.273
936.64,54.091
937.11,54.636
937.58,55.727
938.04,55.727
938.51,50.818
938.98,56.273
939.45,54.273
939.91,54.636
940.38,52.636
940.85,53.182
941.32,54.455
941.79,55.727
942.25,52.636
942.72,54.818
943.19,54.273
943.66,54.273
944.12,52.273
944.59,52.636
945.06,54.818
945.53,52.636
946,52.455
946.46,51.909
946.93,53.182
947.4,53.545
947.86,50.818
948.33,54.455
948.8,52.091
949.26,51.182
949.73,53.364
950.2,50.273
950.67,51.909
951.13,53.545
951.6,54.455
952.07,53.727
952.53,54.273
953,47.364
953.47,51.364
953.93,52.636
954.4,50.818
954.87,49.364
955.33,52.455
955.8,51.545
956.27,52.455
956.74,50.273
957.2,51.182
957.67,53
958.13,53.182
958.6,53
959.07,49.909
959.53,49.182
960,52.091
960.47,55.182
960.93,46.818
961.4,51.182
961.87,49.727
962.33,50.818
962.8,48.818
963.26,49.727
963.73,53
964.2,51.909
964.66,51.545
965.13,53.545
965.59,52.273
966.06,49.909
966.52,51.364
966.99,47
967.46,51.545
967.92,50.091
968.39,53
968.86,51.364
969.32,48.636
969.78,46.455
970.25,53.364
970.72,47.545
971.18,45.909
971.65,48.636
972.11,46.636
972.58,47.727
973.04,50.455
973.51,47.909
973.98,48.455
974.44,49.545
974.9,50.273
975.37,49.182
975.84,49.727
976.3,49.182
976.77,45.545
977.23,47.909
977.7,50.091
978.16,45.182
978.63,49.727
979.09,48.818
979.56,47
980.02,49.182
980.49,46.818
980.95,46.091
981.41,49
981.88,47.182
982.35,48.091
982.81,48.273
983.27,47.182
983.74,49.182
984.2,50.455
984.67,51.909
985.13,50.091
985.6,49.727
986.06,46.818
986.52,48.273
986.99,43.727
987.45,45.182
987.92,49.727
988.38,51.364
988.85,46.455
989.31,49.182
989.78,48.455
990.24,46.455
990.7,47.909
991.17,45.545
991.63,47.909
992.1,47
992.56,42.818
993.02,48.273
993.49,44.636
993.95,45.545
994.41,48.091
994.88,45.545
995.34,47.545
995.8,45.909
996.27,47
996.73,44.091
997.2,44.273
997.66,50.818
998.12,45
998.59,47.727
999.05,45.909
999.51,50.273
999.98,43.909
1000.4,49
1000.9,47.182
1001.4,43.909
1001.8,47.909
1002.3,45.727
1002.8,48.273
1003.2,47.545
1003.7,45.545
1004.1,47.545
1004.6,47
1005.1,43.364
1005.5,46.455
1006,46.273
1006.5,47.909
1006.9,44.818
1007.4,46.636
1007.9,48.455
1008.3,45.727
1008.8,46.091
1009.2,47.364
1009.7,47.545
1010.2,48.636
1010.6,45.182
1011.1,46.818
1011.5,45.182
1012,43.727
1012.5,44.455
1012.9,46.091
1013.4,43.727
1013.9,44.818
1014.3,48.273
1014.8,48.818
1015.2,47.182
1015.7,49
1016.2,48.818
1016.6,44.818
1017.1,45.909
1017.6,47.364
1018,43.545
1018.5,49.545
1018.9,44.091
1019.4,46.273
1019.9,46.091
1020.3,47
1020.8,44.818
1021.2,47.182
1021.7,45.182
1022.2,47.727
1022.6,43.727
1023.1,47
1023.6,45.364
1024,46.273
1024.5,45.727
1025,47
1025.4,45.364
1025.9,49.364
1026.3,43.909
1026.8,48.455
1027.2,47.182
1027.7,47.727
1028.2,47.364
1028.6,49.364
1029.1,46.455
1029.6,47.364
1030,49.545
1030.5,49.182
1030.9,50.636
1031.4,51
1031.9,50.818
1032.3,52.091
1032.8,48.455
1033.2,55.545
1033.7,53.545
1034.2,51.727
1034.6,53.182
1035.1,51.364
1035.5,51.182
1036,50.091
1036.5,50.455
1036.9,51.727
1037.4,51
1037.8,50.636
1038.3,52.636
1038.8,51
1039.2,57
1039.7,55.364
1040.2,53
1040.6,49.364
1041.1,51.909
1041.5,54.091
1042,50.091
1042.5,47.364
1042.9,50.091
1043.4,55.182
1043.8,51.727
1044.3,51
1044.8,53
1045.2,51.909
1045.7,48.455
1046.1,53.364
1046.6,49.909
1047.1,48.455
1047.5,56.636
1048,49.364
1048.4,52.273
1048.9,49.545
1049.4,53.909
1049.8,54.273
1050.3,52.818
1050.7,55.545
1051.2,52.818
1051.7,56.455
1052.1,56.636
1052.6,58.636
1053,56.091
1053.5,60.636
1054,67.909
1054.4,60.818
1054.9,65.364
1055.3,69.909
1055.8,67.182
1056.2,74.273
1056.7,76.273
1057.2,77.546
1057.6,80.636
1058.1,80.636
1058.5,86.273
1059,90.818
1059.5,93.182
1059.9,93.545
1060.4,94.454
1060.8,102.27
1061.3,109.18
1061.8,109.18
1062.2,108.64
1062.7,115.91
1063.1,117.55
1063.6,121.18
1064,118.09
1064.5,122.82
1065,126.64
1065.4,130.27
1065.9,135.36
1066.3,139.36
1066.8,143.36
1067.2,149.18
1067.7,153.54
1068.2,153.91
1068.6,157.18
1069.1,162.27
1069.5,164.64
1070,165.73
1070.5,166.46
1070.9,168.27
1071.4,175.36
1071.8,177.73
1072.3,177.73
1072.8,176.27
1073.2,169.73
1073.7,177.18
1074.1,176.09
1074.6,174.82
1075,181.36
1075.5,176.64
1076,179.73
1076.4,177.36
1076.9,182.64
1077.3,186.09
1077.8,186.82
1078.2,181.36
1078.7,181.36
1079.2,183.91
1079.6,186.09
1080.1,178.09
1080.5,175.18
1081,175.54
1081.4,171.18
1081.9,171.54
1082.4,171.54
1082.8,163.54
1083.3,171
1083.7,166.64
1084.2,164.27
1084.6,160.27
1085.1,163
1085.6,150.46
1086,155.73
1086.5,144.82
1086.9,141.91
1087.4,143.73
1087.8,135.36
1088.3,130.27
1088.8,130.27
1089.2,126.82
1089.7,119.36
1090.1,115.36
1090.6,109.55
1091,105.55
1091.5,100.82
1092,98.818
1092.4,87
1092.9,86.636
1093.3,81.909
1093.8,81
1094.2,75.727
1094.7,72.455
1095.1,71.182
1095.6,62.091
1096.1,64.636
1096.5,59.545
1097,60.636
1097.4,56.636
1097.9,52.091
1098.3,51
1098.8,53
1099.2,46.455
1099.7,49.909
1100.2,47.727
1100.6,45.182
1101.1,47.909
1101.5,44.273
1102,42.455
1102.4,41.727
1102.9,45.545
1103.3,46.091
1103.8,47
1104.3,45.727
1104.7,43.545
1105.2,44.455
1105.6,45
1106.1,41.364
1106.5,43.182
1107,43.909
1107.5,43.364
1107.9,41.182
1108.4,42.091
1108.8,41.545
1109.3,40.818
1109.7,39.545
1110.2,41.545
1110.6,38.818
1111.1,41
1111.5,42.273
1112,41
1112.5,39.364
1112.9,40.636
1113.4,38.273
1113.8,41.545
1114.3,42.455
1114.7,41.909
1115.2,39.727
1115.6,40.636
1116.1,40.091
1116.5,40.818
1117,41.727
1117.5,39.182
1117.9,41.909
1118.4,39
1118.8,39
1119.3,43.364
1119.7,37.909
1120.2,43.182
1120.6,43.182
1121.1,36.455
1121.5,40.636
1122,39.727
1122.5,39.727
1122.9,40.273
1123.4,38.273
1123.8,39.727
1124.3,39.727
1124.7,36.455
1125.2,39.364
1125.6,36.636
1126.1,37.909
1126.5,39.364
1127,41.545
1127.4,40.636
1127.9,37.364
1128.3,39.909
1128.8,38.818
1129.3,40.455
1129.7,38.636
1130.2,39
1130.6,43.182
1131.1,40.273
1131.5,37.545
1132,40.455
1132.4,38.455
1132.9,35
1133.3,37.545
1133.8,39
1134.2,37.909
1134.7,38.091
1135.2,41.182
1135.6,38.455
1136.1,41
1136.5,38.273
1137,38.455
1137.4,37.364
1137.9,37
1138.3,35.909
1138.8,36.818
1139.2,37
1139.7,37.909
1140.1,38.091
1140.6,39.727
1141,36.091
1141.5,37.364
1142,35.545
1142.4,39.182
1142.8,35.545
1143.3,39.364
1143.8,37.545
1144.2,39
1144.7,36.818
1145.1,37.727
1145.6,36.818
1146,39.364
1146.5,34.455
1146.9,38.273
1147.4,37.727
1147.8,40.818
1148.3,39.909
1148.7,38.455
1149.2,33.909
1149.6,39.182
1150.1,37.364
1150.5,35.364
1151,36.455
1151.4,37.545
1151.9,36.273
1152.3,36.091
1152.8,37.545
1153.2,36.636
1153.7,36.455
1154.2,37.182
1154.6,34.455
1155.1,36.273
1155.5,35.545
1156,37.364
1156.4,38.273
1156.9,33.364
1157.3,35.182
1157.8,33.727
1158.2,31.364
1158.7,35
1159.1,35.182
1159.6,34.818
1160,31.546
1160.5,39.545
1160.9,35.909
1161.4,36.091
1161.8,36.818
1162.3,32.273
1162.7,37
1163.2,37.364
1163.6,35.364
1164.1,36.636
1164.5,36.818
1165,36.273
1165.4,35.909
1165.9,35.909
1166.3,32.818
1166.8,35.727
1167.2,34.455
1167.7,36.455
1168.1,33.364
1168.6,37
1169,36.455
1169.5,32.455
1169.9,36.455
1170.4,33
1170.8,33.727
1171.3,34.455
1171.7,33.182
1172.2,33.909
1172.6,34.091
1173.1,34.091
1173.5,32.455
1174,34.273
1174.5,35.545
1174.9,35.545
1175.3,36.818
1175.8,40.273
1176.2,34.818
1176.7,36.455
1177.2,36.091
1177.6,34.091
1178,34.818
1178.5,35.364
1179,35.364
1179.4,34.818
1179.8,31.546
1180.3,35.909
1180.8,35.909
1181.2,33
1181.6,34.091
1182.1,33
1182.5,32.273
1183,33.909
1183.4,33
1183.9,33.545
1184.3,35.909
1184.8,34.091
1185.2,35.909
1185.7,35.364
1186.1,32.636
1186.6,31.182
1187,32.455
1187.5,35.545
1187.9,34.091
1188.4,34.273
1188.8,31.182
1189.3,32.818
1189.7,34.091
1190.2,35.182
1190.6,32.455
1191.1,35
1191.5,32.273
1192,33.727
1192.4,35.182
1192.9,35.727
1193.3,31.546
1193.8,32.091
1194.2,31
1194.7,30.091
1195.1,35.182
1195.6,31.546
1196,32.273
1196.5,33.364
1196.9,32.636
1197.4,30.636
1197.8,33.727
1198.3,33.182
1198.7,33
1199.2,32.091
1199.6,32.636
1200,33.364
1200.5,33.727
1201,33.727
1201.4,34.455
1201.8,30.454
1202.3,35
1202.7,34.636
1203.2,29.909
1203.6,33.364
1204.1,33.182
1204.5,33.182
1205,34.455
1205.4,34.455
1205.9,32.455
1206.3,32.091
1206.8,34.818
1207.2,36.091
1207.7,35.545
1208.1,35
1208.6,32.818
1209,33
1209.5,35.364
1209.9,34.273
1210.3,31.182
1210.8,30.818
1211.2,35.364
1211.7,34.636
1212.1,36.091
1212.6,35
1213,35
1213.5,30.818
1213.9,34.636
1214.4,32.818
1214.8,30.636
1215.3,32.091
1215.7,32.273
1216.2,34.273
1216.6,34.455
1217.1,31.364
1217.5,35.182
1218,31.546
1218.4,29.727
1218.8,31
1219.3,31.182
1219.7,31.909
1220.2,34.273
1220.6,33.182
1221.1,33.545
1221.5,32.091
1222,33.182
1222.4,37.182
1222.9,32.455
1223.3,30.273
1223.8,34.091
1224.2,30.636
1224.7,31.909
1225.1,29.727
1225.5,31.727
1226,31.364
1226.4,33.727
1226.9,30.818
1227.3,35
1227.8,31.546
1228.2,30.636
1228.7,31.727
1229.1,31
1229.6,32.818
1230,33.545
1230.5,31
1230.9,31.909
1231.3,30.636
1231.8,31.182
1232.2,34.091
1232.7,33.727
1233.1,30.454
1233.6,32.455
1234,32.091
1234.5,34.455
1234.9,33.727
1235.3,32.273
1235.8,30.273
1236.2,31.182
1236.7,32.636
1237.1,32.455
1237.6,34.818
1238,31.909
1238.5,31.909
1238.9,35.182
1239.4,29.182
1239.8,30.454
1240.2,32.273
1240.7,31.909
1241.1,33.182
1241.6,31.727
1242,29.909
1242.5,33.727
1242.9,32.091
1243.4,31.182
1243.8,33
1244.3,32.818
1244.7,35.545
1245.2,36.091
1245.6,31.727
1246,35
1246.5,33.364
1246.9,31.364
1247.4,32.273
1247.8,31.909
1248.3,33.727
1248.7,35
1249.2,34.455
1249.6,33.364
